AP Cora 5001
Software_Version;1.5.4
[SAMPLE]
Sample_Name;A3_t0
Method;
[PARAMETERS]
Instrument_Type;Cora 5001
Instrument_SN;99119713
Last_SST;1/30/2026 9:18:27 AM
User_Name;labmanager
Measurement_Started;1/30/2026 4:33:06 PM
Measurement_Finished;1/30/2026 4:34:07 PM
Measurement_Saved;1/30/2026 4:34:07 PM
Wavelength;785
Laser_Power;30
Auto_Exposure;False
Exposure_Time;10000
Averaged_Spectra;3
Probe_Type;Regular Probe (785 nm)
Probe_SN;99101107
Dark_Background;True
User_Background_Spectrum;
Spike_Removal;True
Baseline_Correction;False
Smoothing;False
Normalization;None
[SPECTRUM QUALITY]
Quality_Saturation;False
Quality_SBR;NaN
Quality_Temperature;False
[SPECTRUM]
100;1759.52001953125
102;1737.65356445313
104;1717.91760253906
106;1697.38305664063
108;1669.53149414063
110;1631.87646484375
112;1579.84252929688
114;1527.38940429688
116;1476.33471679688
118;1425.447265625
120;1370.93811035156
122;1315.05407714844
124;1262.01586914063
126;1211.00329589844
128;1160.875
130;1117.77587890625
132;1076.01672363281
134;1034.90026855469
136;1003.46032714844
138;971.363159179688
140;936.262634277344
142;909.862487792969
144;889.851928710938
146;871.528747558594
148;848.799377441406
150;827.512878417969
152;812.3935546875
154;804.106262207031
156;787.604614257813
158;780.254211425781
160;767.847473144531
162;760.746948242188
164;754.191711425781
166;748.709411621094
168;748.729370117188
170;744.226257324219
172;733.876281738281
174;720.918395996094
176;717.669616699219
178;716.017578125
180;707.602416992188
182;703.172668457031
184;701.80859375
186;700.873046875
188;691.320617675781
190;684.364624023438
192;685.099609375
194;678.1376953125
196;676.22802734375
198;675.983581542969
200;669.826965332031
202;668.333740234375
204;667.839050292969
206;662.110473632813
208;660.213989257813
210;660.432067871094
212;662.225402832031
214;659.125610351563
216;660.613342285156
218;656.836608886719
220;652.268493652344
222;655.634155273438
224;651.671447753906
226;652.84814453125
228;651.357299804688
230;645.555786132813
232;653.093505859375
234;647.5732421875
236;647.277221679688
238;648.461853027344
240;648.778747558594
242;643.456787109375
244;640.833801269531
246;634.368774414063
248;640.528503417969
250;645.049072265625
252;643.546142578125
254;647.162109375
256;642.565490722656
258;642.595764160156
260;643.624267578125
262;646.342712402344
264;650.234069824219
266;645.814331054688
268;642.034301757813
270;647.592956542969
272;651.175231933594
274;647.201049804688
276;646.427429199219
278;644.662902832031
280;645.376525878906
282;648.308898925781
284;644.238830566406
286;648.195251464844
288;648.348876953125
290;643.739807128906
292;642.578735351563
294;640.558715820313
296;643.056213378906
298;645.41552734375
300;646.379028320313
302;642.244262695313
304;638.778686523438
306;638.908386230469
308;639.046081542969
310;641.527526855469
312;643.801025390625
314;641.881652832031
316;638.316528320313
318;631.514038085938
320;636.667541503906
322;635.331665039063
324;636.596862792969
326;639.177978515625
328;635.368835449219
330;633.237731933594
332;629.796081542969
334;629.368774414063
336;629.667541503906
338;624.8671875
340;627.947814941406
342;631.292236328125
344;628.838195800781
346;629.412231445313
348;626.853515625
350;623.027404785156
352;623.52685546875
354;626.314575195313
356;626.572631835938
358;621.365295410156
360;616.956604003906
362;617.004760742188
364;620.77392578125
366;622.06591796875
368;619.184020996094
370;619.505737304688
372;619.266479492188
374;617.025085449219
376;619.025329589844
378;621.825134277344
380;620.491394042969
382;622.08935546875
384;628.266296386719
386;630.137573242188
388;626.498291015625
390;627.698425292969
392;630.081237792969
394;631.123840332031
396;630.565368652344
398;626.874450683594
400;631.943176269531
402;635.673950195313
404;632.039367675781
406;638.65625
408;642.655212402344
410;643.309692382813
412;642.690734863281
414;647.718078613281
416;647.5322265625
418;645.788696289063
420;650.671813964844
422;657.529663085938
424;663.685363769531
426;665.112670898438
428;657.9169921875
430;661.655334472656
432;667.210266113281
434;664.473999023438
436;662.155944824219
438;668.766296386719
440;669.940734863281
442;662.471618652344
444;658.7705078125
446;661.770202636719
448;660.349365234375
450;653.074279785156
452;652.899047851563
454;651.930358886719
456;652.422241210938
458;646.614624023438
460;643.277587890625
462;644.225891113281
464;646.156188964844
466;640.948181152344
468;636.395446777344
470;643.888427734375
472;638.570190429688
474;630.652770996094
476;630.665893554688
478;627.691528320313
480;625.69677734375
482;626.153564453125
484;629.250610351563
486;627.597717285156
488;629.460327148438
490;626.897155761719
492;625.78955078125
494;625.995788574219
496;625.242309570313
498;622.52099609375
500;626.90478515625
502;628.256225585938
504;626.085754394531
506;621.963562011719
508;622.451232910156
510;627.869934082031
512;624.763793945313
514;626.701965332031
516;624.427001953125
518;626.404602050781
520;630.215454101563
522;629.102905273438
524;632.453430175781
526;630.5458984375
528;632.115417480469
530;630.117980957031
532;630.15185546875
534;634.329467773438
536;635.656433105469
538;632.712768554688
540;637.804382324219
542;635.881896972656
544;635.554016113281
546;639.277465820313
548;636.442016601563
550;637.239440917969
552;642.297424316406
554;641.161315917969
556;641.411682128906
558;642.195556640625
560;646.921813964844
562;644.323303222656
564;648.792175292969
566;653.597351074219
568;657.84814453125
570;660.486633300781
572;657.388549804688
574;662.358459472656
576;664.5654296875
578;663.921203613281
580;668.179382324219
582;673.079833984375
584;673.969604492188
586;668.925231933594
588;672.928405761719
590;667.9248046875
592;676.695129394531
594;672.755676269531
596;668.146911621094
598;662.279418945313
600;661.0908203125
602;657.573364257813
604;656.286254882813
606;653.830261230469
608;650.650695800781
610;655.097351074219
612;651.388427734375
614;651.045654296875
616;651.791381835938
618;649.711364746094
620;641.793518066406
622;639.192565917969
624;647.032043457031
626;641.659790039063
628;636.56201171875
630;638.063537597656
632;635.080139160156
634;632.015930175781
636;631.881652832031
638;631.199401855469
640;633.565002441406
642;631.998779296875
644;630.033508300781
646;631.312622070313
648;626.620056152344
650;623.443969726563
652;626.193786621094
654;632.109069824219
656;628.378051757813
658;629.650817871094
660;626.824096679688
662;631.639587402344
664;630.199829101563
666;630.953674316406
668;627.514343261719
670;631.865051269531
672;633.062133789063
674;632.702026367188
676;632.281372070313
678;629.388244628906
680;630.558959960938
682;631.352966308594
684;628.976623535156
686;632.193115234375
688;635.046936035156
690;633.976379394531
692;636.314819335938
694;636.818664550781
696;636.535034179688
698;636.325134277344
700;633.887145996094
702;633.226867675781
704;636.375183105469
706;638.593627929688
708;637.2705078125
710;636.979614257813
712;634.235595703125
714;636.123718261719
716;635.675231933594
718;641.305908203125
720;638.538146972656
722;642.564208984375
724;641.215026855469
726;638.941528320313
728;638.332641601563
730;639.273132324219
732;637.310607910156
734;636.480163574219
736;637.121276855469
738;635.204223632813
740;635.085571289063
742;635.386413574219
744;636.828979492188
746;634.9716796875
748;637.755920410156
750;637.810302734375
752;637.513244628906
754;636.964538574219
756;637.775939941406
758;638.505126953125
760;638.783447265625
762;638.592224121094
764;636.328125
766;637.351013183594
768;640.755432128906
770;639.447021484375
772;632.185546875
774;636.036682128906
776;637.866271972656
778;636.046813964844
780;635.296630859375
782;635.281860351563
784;635.643127441406
786;633.584167480469
788;634.921325683594
790;635.578674316406
792;633.117797851563
794;630.830200195313
796;635.955810546875
798;638.417907714844
800;636.931701660156
802;638.562683105469
804;637.078918457031
806;642.091674804688
808;648.864135742188
810;649.906616210938
812;655.533508300781
814;659.704467773438
816;657.136840820313
818;656.116821289063
820;649.029663085938
822;652.81298828125
824;651.022827148438
826;643.370788574219
828;641.960144042969
830;643.347717285156
832;644.24267578125
834;647.285400390625
836;646.272277832031
838;644.843017578125
840;646.078674316406
842;652.466796875
844;658.561279296875
846;660.152954101563
848;669.199340820313
850;670.141845703125
852;671.439453125
854;673.66064453125
856;672.10888671875
858;667.966125488281
860;670.42431640625
862;665.583435058594
864;662.91748046875
866;665.853820800781
868;666.095520019531
870;666.720886230469
872;667.802795410156
874;668.15283203125
876;665.064880371094
878;667.423522949219
880;669.070983886719
882;670.598815917969
884;663.656860351563
886;661.987609863281
888;660.358032226563
890;655.089477539063
892;659.715698242188
894;656.544982910156
896;656.052917480469
898;656.296447753906
900;658.170532226563
902;655.650268554688
904;653.107788085938
906;646.717712402344
908;647.53857421875
910;657.180908203125
912;661.93310546875
914;666.57275390625
916;667.35205078125
918;675.960876464844
920;674.83349609375
922;679.837585449219
924;678.700439453125
926;679.522155761719
928;681.77197265625
930;684.656799316406
932;692.985046386719
934;702.38134765625
936;709.758666992188
938;715.846008300781
940;731.984619140625
942;745.710510253906
944;758.351745605469
946;779.3173828125
948;807.127014160156
950;840.602294921875
952;874.869995117188
954;924.345886230469
956;965.271606445313
958;989.816284179688
960;999.914306640625
962;995.400207519531
964;959.219970703125
966;911.667541503906
968;860.752380371094
970;811.547790527344
972;770.699523925781
974;739.665771484375
976;700.812805175781
978;681.961669921875
980;667.755615234375
982;660.415344238281
984;655.336303710938
986;650.915344238281
988;645.415710449219
990;640.747375488281
992;634.324462890625
994;635.565795898438
996;643.261596679688
998;643.387268066406
1000;647.690246582031
1002;654.061950683594
1004;654.817993164063
1006;651.297058105469
1008;653.221557617188
1010;646.930725097656
1012;642.760559082031
1014;639.558044433594
1016;638.217468261719
1018;648.299865722656
1020;647.017639160156
1022;652.766967773438
1024;651.17724609375
1026;650.469604492188
1028;655.55517578125
1030;660.524963378906
1032;660.312194824219
1034;657.710815429688
1036;653.343505859375
1038;655.827819824219
1040;658.511779785156
1042;659.512878417969
1044;655.38330078125
1046;663.419128417969
1048;662.690002441406
1050;657.256103515625
1052;657.916809082031
1054;661.125122070313
1056;662.9150390625
1058;662.760986328125
1060;662.030151367188
1062;674.060485839844
1064;680.088317871094
1066;683.878845214844
1068;674.868713378906
1070;685.471984863281
1072;686.764709472656
1074;690.17626953125
1076;687.438537597656
1078;674.6064453125
1080;667.379211425781
1082;663.683532714844
1084;651.781860351563
1086;652.639221191406
1088;643.951782226563
1090;642.068481445313
1092;639.980163574219
1094;632.381958007813
1096;628.752990722656
1098;629.612243652344
1100;626.520690917969
1102;625.675354003906
1104;626.466674804688
1106;621.221374511719
1108;617.502075195313
1110;613.185546875
1112;613.353332519531
1114;607.745361328125
1116;606.3291015625
1118;603.774291992188
1120;599.631896972656
1122;595.747741699219
1124;596.935852050781
1126;597.263000488281
1128;602.250549316406
1130;597.189758300781
1132;592.99560546875
1134;594.283386230469
1136;588.917175292969
1138;589.92578125
1140;590.789367675781
1142;592.686279296875
1144;582.769775390625
1146;589.460754394531
1148;590.874938964844
1150;590.717529296875
1152;593.962280273438
1154;594.136352539063
1156;594.014831542969
1158;594.094970703125
1160;592.824829101563
1162;598.388671875
1164;591.189880371094
1166;592.021606445313
1168;589.973266601563
1170;591.267883300781
1172;595.22314453125
1174;589.977111816406
1176;593.123046875
1178;593.548889160156
1180;590.7099609375
1182;589.046875
1184;587.864501953125
1186;589.930603027344
1188;586.510498046875
1190;589.490783691406
1192;591.967529296875
1194;591.645629882813
1196;589.709167480469
1198;590.016723632813
1200;592.270629882813
1202;588.952209472656
1204;591.404602050781
1206;590.883361816406
1208;596.280151367188
1210;591.655456542969
1212;591.557434082031
1214;593.03662109375
1216;590.120483398438
1218;591.124938964844
1220;591.444274902344
1222;596.3515625
1224;600.515319824219
1226;595.944152832031
1228;590.977233886719
1230;601.827209472656
1232;610.487854003906
1234;619.511291503906
1236;620.279724121094
1238;624.3408203125
1240;624.133728027344
1242;624.353942871094
1244;625.682250976563
1246;631.451599121094
1248;622.760986328125
1250;623.414611816406
1252;623.415588378906
1254;613.90966796875
1256;613.177673339844
1258;607.586486816406
1260;614.183471679688
1262;620.652526855469
1264;620.90625
1266;621.824340820313
1268;619.873840332031
1270;622.065368652344
1272;617.467102050781
1274;619.158447265625
1276;621.139770507813
1278;607.472717285156
1280;606.676452636719
1282;605.863220214844
1284;602.1494140625
1286;599.204040527344
1288;603.091552734375
1290;600.820068359375
1292;601.768615722656
1294;603.103210449219
1296;595.474487304688
1298;591.997314453125
1300;596.120056152344
1302;594.373474121094
1304;590.330688476563
1306;594.323852539063
1308;594.294799804688
1310;588.018249511719
1312;590.769958496094
1314;589.02783203125
1316;594.737731933594
1318;591.077697753906
1320;595.756225585938
1322;590.998046875
1324;589.093322753906
1326;584.179809570313
1328;586.025512695313
1330;584.943054199219
1332;584.984985351563
1334;584.107055664063
1336;580.769592285156
1338;581.847351074219
1340;581.230346679688
1342;579.903259277344
1344;576.316101074219
1346;582.859924316406
1348;577.264587402344
1350;573.310974121094
1352;577.570007324219
1354;576.091735839844
1356;572.378295898438
1358;576.591430664063
1360;561.628662109375
1362;561.632141113281
1364;575.829406738281
1366;571.864013671875
1368;575.528686523438
1370;577.02197265625
1372;580.540466308594
1374;583.670837402344
1376;575.908813476563
1378;576.271728515625
1380;580.156921386719
1382;581.664123535156
1384;580.961181640625
1386;583.166137695313
1388;584.592895507813
1390;582.208251953125
1392;580.845825195313
1394;581.942443847656
1396;578.495361328125
1398;580.411254882813
1400;583.573364257813
1402;580.552429199219
1404;577.770263671875
1406;577.083374023438
1408;577.522705078125
1410;579.139221191406
1412;576.702819824219
1414;584.268615722656
1416;579.359008789063
1418;580.437194824219
1420;584.168823242188
1422;586.804016113281
1424;578.884643554688
1426;588.105285644531
1428;588.785217285156
1430;586.340637207031
1432;589.606262207031
1434;592.0029296875
1436;592.142883300781
1438;598.730224609375
1440;603.578552246094
1442;601.369934082031
1444;606.360229492188
1446;612.549926757813
1448;612.686706542969
1450;612.939819335938
1452;615.865356445313
1454;614.822570800781
1456;614.018432617188
1458;605.533813476563
1460;603.450378417969
1462;597.996398925781
1464;595.7080078125
1466;589.45166015625
1468;588.927185058594
1470;577.996765136719
1472;572.553283691406
1474;570.401184082031
1476;559.17724609375
1478;553.81201171875
1480;550.823791503906
1482;548.069274902344
1484;541.682922363281
1486;543.709899902344
1488;537.517272949219
1490;536.272155761719
1492;533.43017578125
1494;534.319885253906
1496;532.595581054688
1498;531.287719726563
1500;528.490478515625
1502;528.707214355469
1504;522.767150878906
1506;526.386962890625
1508;522.86962890625
1510;522.598937988281
1512;522.976440429688
1514;519.324768066406
1516;530.684814453125
1518;524.266296386719
1520;517.76708984375
1522;521.155578613281
1524;518.844299316406
1526;525.583618164063
1528;518.357238769531
1530;524.994079589844
1532;519.493896484375
1534;516.795776367188
1536;524.9306640625
1538;518.811462402344
1540;513.922119140625
1542;517.712158203125
1544;526.962646484375
1546;512.282287597656
1548;513.263549804688
1550;516.129760742188
1552;516.910339355469
1554;518.232360839844
1556;514.0771484375
1558;511.97802734375
1560;514.761047363281
1562;510.821136474609
1564;513.786071777344
1566;511.244018554688
1568;507.614959716797
1570;515.519287109375
1572;520.406372070313
1574;519.447204589844
1576;516.485778808594
1578;511.868957519531
1580;515.337280273438
1582;513.755004882813
1584;512.707946777344
1586;514.90966796875
1588;510.994659423828
1590;510.999938964844
1592;510.705688476563
1594;513.460571289063
1596;513.080200195313
1598;513.462463378906
1600;515.284851074219
1602;526.839721679688
1604;503.842193603516
1606;525.320007324219
1608;523.808715820313
1610;515.657958984375
1612;516.43896484375
1614;522.332763671875
1616;521.028137207031
1618;520.988159179688
1620;522.645080566406
1622;511.074554443359
1624;528.992980957031
1626;523.686218261719
1628;529.461669921875
1630;525.712585449219
1632;531.800720214844
1634;530.583984375
1636;530.6474609375
1638;540.279296875
1640;537.6357421875
1642;541.388854980469
1644;543.2099609375
1646;542.967224121094
1648;543.454162597656
1650;544.665344238281
1652;536.507934570313
1654;544.786560058594
1656;542.362609863281
1658;547.556945800781
1660;550.752380371094
1662;550.913940429688
1664;551.568542480469
1666;547.416259765625
1668;544.682495117188
1670;544.155578613281
1672;550.143737792969
1674;533.936645507813
1676;529.001708984375
1678;536.522521972656
1680;533.339782714844
1682;531.147399902344
1684;527.006591796875
1686;522.207336425781
1688;514.646179199219
1690;515.609924316406
1692;510.478210449219
1694;507.525787353516
1696;506.129730224609
1698;502.589721679688
1700;495.490966796875
1702;486.567718505859
1704;486.280975341797
1706;486.823364257813
1708;476.265350341797
1710;480.695739746094
1712;480.427093505859
1714;470.952026367188
1716;476.710815429688
1718;475.402374267578
1720;466.768280029297
1722;466.122711181641
1724;473.347747802734
1726;466.044219970703
1728;465.548736572266
1730;469.691650390625
1732;462.229339599609
1734;468.183990478516
1736;466.6220703125
1738;456.018280029297
1740;467.638488769531
1742;458.298706054688
1744;466.343048095703
1746;459.839233398438
1748;458.757934570313
1750;463.171295166016
1752;461.117370605469
1754;462.654022216797
1756;458.526794433594
1758;461.241149902344
1760;461.489807128906
1762;459.811737060547
1764;456.902374267578
1766;453.609527587891
1768;454.684265136719
1770;459.569610595703
1772;455.236602783203
1774;457.853424072266
1776;459.435760498047
1778;455.600616455078
1780;453.674163818359
1782;455.252471923828
1784;455.883880615234
1786;452.494567871094
1788;446.621856689453
1790;446.566955566406
1792;446.932891845703
1794;441.509887695313
1796;449.503479003906
1798;446.280944824219
1800;442.067138671875
1802;446.301330566406
1804;444.323944091797
1806;449.657928466797
1808;445.361877441406
1810;449.448944091797
1812;437.698699951172
1814;453.580078125
1816;446.336669921875
1818;444.695587158203
1820;441.73486328125
1822;441.460754394531
1824;435.569030761719
1826;445.118041992188
1828;443.230163574219
1830;439.171630859375
1832;433.107086181641
1834;435.069702148438
1836;432.146820068359
1838;436.013580322266
1840;433.206787109375
1842;436.297149658203
1844;432.935699462891
1846;435.420349121094
1848;434.115692138672
1850;434.681610107422
1852;428.116668701172
1854;428.790985107422
1856;420.197326660156
1858;429.734466552734
1860;423.491577148438
1862;433.722320556641
1864;430.180053710938
1866;426.506927490234
1868;422.294586181641
1870;428.617523193359
1872;428.720581054688
1874;414.713928222656
1876;429.332427978516
1878;422.411163330078
1880;426.178741455078
1882;428.434509277344
1884;421.167602539063
1886;424.201141357422
1888;424.25732421875
1890;423.616882324219
1892;423.1982421875
1894;419.043395996094
1896;413.951477050781
1898;420.036956787109
1900;418.240783691406
1902;418.4716796875
1904;414.303955078125
1906;418.979858398438
1908;421.023223876953
1910;416.212219238281
1912;415.44775390625
1914;408.334686279297
1916;422.724243164063
1918;416.143341064453
1920;417.738922119141
1922;413.273681640625
1924;413.110473632813
1926;413.855529785156
1928;412.781097412109
1930;405.514831542969
1932;414.536529541016
1934;409.116119384766
1936;411.2138671875
1938;413.393493652344
1940;402.223815917969
1942;413.750061035156
1944;400.395233154297
1946;411.118438720703
1948;414.151672363281
1950;411.289581298828
1952;412.399963378906
1954;403.566467285156
1956;412.263580322266
1958;413.474975585938
1960;396.210174560547
1962;408.305114746094
1964;401.090576171875
1966;408.882995605469
1968;406.421966552734
1970;396.522644042969
1972;395.763336181641
1974;408.595916748047
1976;400.586273193359
1978;405.667633056641
1980;389.639617919922
1982;391.936401367188
1984;407.255126953125
1986;384.869812011719
1988;401.168914794922
1990;399.945922851563
1992;398.574676513672
1994;389.375518798828
1996;393.998413085938
1998;396.633544921875
2000;396.246063232422
2002;395.058502197266
2004;389.867218017578
2006;400.00634765625
2008;396.244720458984
2010;399.137969970703
2012;400.957153320313
2014;396.989135742188
2016;383.382385253906
2018;395.726196289063
2020;389.695587158203
2022;390.617767333984
2024;394.547882080078
2026;385.76708984375
2028;395.289459228516
2030;393.170349121094
2032;387.777008056641
2034;379.368347167969
2036;398.846313476563
2038;393.488677978516
2040;393.204742431641
2042;384.064056396484
2044;384.754760742188
2046;386.509948730469
2048;384.116058349609
2050;380.874298095703
2052;390.875549316406
2054;396.370788574219
2056;384.695617675781
2058;377.653442382813
2060;385.919219970703
2062;383.077514648438
2064;383.950469970703
2066;386.975189208984
2068;381.961059570313
2070;380.70751953125
2072;376.875061035156
2074;381.269958496094
2076;385.683135986328
2078;393.546600341797
2080;379.955810546875
2082;384.556060791016
2084;384.869598388672
2086;370.747619628906
2088;381.014190673828
2090;375.231506347656
2092;378.319885253906
2094;389.190124511719
2096;367.580322265625
2098;380.480682373047
2100;378.654052734375
2102;382.436431884766
2104;356.572875976563
2106;380.71875
2108;372.043975830078
2110;382.24951171875
2112;366.431549072266
2114;361.173126220703
2116;365.105377197266
2118;376.203826904297
2120;373.220031738281
2122;381.245941162109
2124;359.778228759766
2126;364.91015625
2128;363.645812988281
2130;368.981079101563
2132;366.604431152344
2134;374.657531738281
2136;365.33740234375
2138;363.985626220703
2140;366.153289794922
2142;366.542663574219
2144;371.052032470703
2146;365.468353271484
2148;361.929656982422
2150;372.184539794922
2152;367.449615478516
2154;365.848480224609
2156;353.282073974609
2158;368.256408691406
2160;364.892120361328
2162;366.241973876953
2164;369.577606201172
2166;363.405487060547
2168;357.831146240234
2170;344.574798583984
2172;366.137725830078
2174;367.673522949219
2176;371.713439941406
2178;360.653656005859
2180;359.018859863281
2182;370.058380126953
2184;360.484741210938
2186;365.116485595703
2188;354.824157714844
2190;364.423583984375
2192;364.980407714844
2194;354.216918945313
2196;367.986968994141
2198;365.852508544922
2200;365.469451904297
2202;367.458374023438
2204;357.267761230469
2206;367.672821044922
2208;366.730895996094
2210;354.788482666016
2212;366.705871582031
2214;368.7373046875
2216;366.333129882813
2218;361.290802001953
2220;347.494903564453
2222;377.361511230469
2224;352.471954345703
2226;355.620239257813
2228;348.836090087891
2230;350.553527832031
2232;353.307342529297
2234;355.386627197266
2236;350.247222900391
2238;340.941467285156
2240;354.506958007813
2242;351.452026367188
2244;353.626068115234
2246;361.128112792969
2248;356.653442382813
2250;347.480255126953
2252;352.086700439453
2254;353.679656982422
2256;352.951690673828
2258;359.264404296875
2260;341.785095214844
2262;351.326202392578
2264;347.918762207031
2266;359.511596679688
2268;331.766571044922
2270;348.338500976563
2272;359.342468261719
2274;352.648895263672
2276;332.900573730469
2278;351.294036865234
2280;345.477172851563
2282;356.582061767578
2284;340.90234375
2286;346.096496582031
2288;333.674224853516
2290;340.762176513672
2292;355.89453125
2294;344.077026367188
2296;357.209320068359
2298;350.848114013672
2300;332.120422363281
