AP Cora 5001
Software_Version;1.4.1
[SAMPLE]
Sample_Name;nitrile_1
Method;
[PARAMETERS]
Instrument_Type;Cora 5001
Instrument_SN;99119713
Last_SST;3/7/2024 1:00:25 PM +00:00
User_Name;labmanager
Measurement_Started;3/7/2024 2:38:43 PM
Measurement_Finished;3/7/2024 2:39:14 PM
Measurement_Saved;3/7/2024 2:39:14 PM
Wavelength;785
Laser_Power;10
Auto_Exposure;False
Exposure_Time;5000
Averaged_Spectra;3
Probe_Type;Regular Probe (785 nm)
Probe_SN;99101107
Dark_Background;True
User_Background_Spectrum;
Spike_Removal;True
Baseline_Correction;False
Smoothing;False
Normalization;None
[SPECTRUM QUALITY]
Quality_Saturation;False
Quality_SBR;NaN
Quality_Temperature;False
[SPECTRUM]
100.00;2454.79
102.00;2406.52
104.00;2352.21
106.00;2301.20
108.00;2241.24
110.00;2183.26
112.00;2113.86
114.00;2042.92
116.00;1971.28
118.00;1899.72
120.00;1831.68
122.00;1757.33
124.00;1698.65
126.00;1648.52
128.00;1594.65
130.00;1539.74
132.00;1500.74
134.00;1468.28
136.00;1432.16
138.00;1405.39
140.00;1378.86
142.00;1353.86
144.00;1339.95
146.00;1326.39
148.00;1313.57
150.00;1300.07
152.00;1292.44
154.00;1287.83
156.00;1282.08
158.00;1274.47
160.00;1270.83
162.00;1274.86
164.00;1269.60
166.00;1261.49
168.00;1257.24
170.00;1251.21
172.00;1245.64
174.00;1238.46
176.00;1230.64
178.00;1225.57
180.00;1220.02
182.00;1213.26
184.00;1206.55
186.00;1199.61
188.00;1186.16
190.00;1179.78
192.00;1171.43
194.00;1163.81
196.00;1156.46
198.00;1149.58
200.00;1142.29
202.00;1137.14
204.00;1132.76
206.00;1128.63
208.00;1123.37
210.00;1119.45
212.00;1114.76
214.00;1111.57
216.00;1109.03
218.00;1106.26
220.00;1102.05
222.00;1092.93
224.00;1087.17
226.00;1086.57
228.00;1083.57
230.00;1081.16
232.00;1079.64
234.00;1072.86
236.00;1071.49
238.00;1072.23
240.00;1071.21
242.00;1068.84
244.00;1061.15
246.00;1059.27
248.00;1060.14
250.00;1056.32
252.00;1057.61
254.00;1063.77
256.00;1059.85
258.00;1054.23
260.00;1049.96
262.00;1049.84
264.00;1049.95
266.00;1037.29
268.00;1026.96
270.00;1023.83
272.00;1020.18
274.00;1019.53
276.00;1016.39
278.00;1010.33
280.00;1006.91
282.00;1004.01
284.00;1000.40
286.00;994.87
288.00;984.50
290.00;979.69
292.00;973.72
294.00;969.75
296.00;969.28
298.00;963.13
300.00;961.07
302.00;955.38
304.00;946.33
306.00;947.61
308.00;945.17
310.00;939.43
312.00;936.53
314.00;932.10
316.00;927.46
318.00;927.68
320.00;927.51
322.00;922.35
324.00;917.13
326.00;916.68
328.00;915.48
330.00;914.60
332.00;913.80
334.00;908.75
336.00;906.86
338.00;907.69
340.00;905.25
342.00;899.22
344.00;896.01
346.00;896.29
348.00;894.65
350.00;893.66
352.00;890.87
354.00;885.44
356.00;883.58
358.00;883.88
360.00;878.34
362.00;872.62
364.00;876.75
366.00;875.96
368.00;866.93
370.00;865.18
372.00;865.61
374.00;863.96
376.00;863.59
378.00;862.42
380.00;857.38
382.00;858.30
384.00;852.83
386.00;853.78
388.00;853.42
390.00;849.23
392.00;850.17
394.00;850.09
396.00;843.29
398.00;839.96
400.00;835.47
402.00;833.12
404.00;836.21
406.00;838.23
408.00;838.91
410.00;833.86
412.00;832.56
414.00;831.47
416.00;837.10
418.00;834.35
420.00;833.19
422.00;834.91
424.00;832.29
426.00;836.27
428.00;836.06
430.00;830.70
432.00;835.82
434.00;832.56
436.00;832.13
438.00;834.36
440.00;834.03
442.00;831.75
444.00;833.81
446.00;837.35
448.00;831.87
450.00;830.84
452.00;830.27
454.00;824.92
456.00;819.42
458.00;815.96
460.00;814.98
462.00;818.66
464.00;814.22
466.00;811.48
468.00;814.46
470.00;806.49
472.00;805.23
474.00;802.16
476.00;802.40
478.00;805.21
480.00;809.64
482.00;811.13
484.00;816.47
486.00;809.18
488.00;802.13
490.00;795.19
492.00;794.83
494.00;792.62
496.00;791.00
498.00;788.66
500.00;785.99
502.00;773.47
504.00;770.56
506.00;768.14
508.00;767.95
510.00;763.96
512.00;764.71
514.00;766.17
516.00;764.89
518.00;762.80
520.00;767.23
522.00;763.44
524.00;762.82
526.00;761.40
528.00;758.01
530.00;758.46
532.00;758.62
534.00;762.05
536.00;752.70
538.00;748.06
540.00;752.17
542.00;753.88
544.00;756.46
546.00;748.90
548.00;754.38
550.00;753.67
552.00;751.92
554.00;749.58
556.00;752.85
558.00;752.86
560.00;750.16
562.00;747.71
564.00;748.04
566.00;744.77
568.00;743.00
570.00;742.72
572.00;744.84
574.00;746.40
576.00;741.97
578.00;741.46
580.00;748.33
582.00;748.21
584.00;745.87
586.00;750.21
588.00;755.15
590.00;755.23
592.00;758.10
594.00;758.93
596.00;762.16
598.00;762.14
600.00;752.94
602.00;751.17
604.00;746.14
606.00;746.03
608.00;748.29
610.00;747.30
612.00;746.30
614.00;742.37
616.00;741.16
618.00;733.42
620.00;736.91
622.00;730.57
624.00;731.85
626.00;731.27
628.00;724.38
630.00;719.60
632.00;722.04
634.00;722.57
636.00;720.75
638.00;721.30
640.00;719.65
642.00;716.15
644.00;711.66
646.00;708.54
648.00;705.13
650.00;704.96
652.00;705.34
654.00;709.66
656.00;710.39
658.00;704.49
660.00;706.15
662.00;703.16
664.00;700.44
666.00;701.83
668.00;703.64
670.00;711.41
672.00;714.46
674.00;729.11
676.00;746.83
678.00;777.86
680.00;807.36
682.00;800.38
684.00;769.71
686.00;745.51
688.00;731.57
690.00;719.38
692.00;716.96
694.00;715.37
696.00;709.22
698.00;702.86
700.00;701.94
702.00;695.90
704.00;689.22
706.00;690.93
708.00;694.63
710.00;693.40
712.00;686.67
714.00;686.89
716.00;682.23
718.00;685.89
720.00;686.74
722.00;685.78
724.00;682.06
726.00;681.73
728.00;684.69
730.00;688.39
732.00;681.10
734.00;678.13
736.00;688.90
738.00;694.94
740.00;708.07
742.00;734.39
744.00;771.46
746.00;815.55
748.00;821.46
750.00;781.68
752.00;736.58
754.00;716.81
756.00;705.53
758.00;695.01
760.00;688.41
762.00;685.03
764.00;681.57
766.00;677.53
768.00;675.25
770.00;674.51
772.00;671.73
774.00;673.07
776.00;678.90
778.00;679.43
780.00;681.44
782.00;681.57
784.00;676.50
786.00;669.39
788.00;669.37
790.00;669.96
792.00;665.76
794.00;665.85
796.00;655.76
798.00;654.89
800.00;659.99
802.00;656.01
804.00;655.04
806.00;652.09
808.00;655.58
810.00;650.90
812.00;651.45
814.00;659.07
816.00;655.05
818.00;654.05
820.00;658.51
822.00;653.59
824.00;653.26
826.00;657.25
828.00;659.07
830.00;666.97
832.00;670.67
834.00;670.95
836.00;656.63
838.00;653.50
840.00;655.46
842.00;656.77
844.00;658.03
846.00;660.13
848.00;658.32
850.00;657.58
852.00;651.85
854.00;645.72
856.00;647.76
858.00;642.88
860.00;637.81
862.00;632.55
864.00;636.36
866.00;632.07
868.00;630.61
870.00;634.59
872.00;632.72
874.00;627.34
876.00;627.09
878.00;628.64
880.00;625.71
882.00;625.28
884.00;626.15
886.00;625.66
888.00;624.79
890.00;622.76
892.00;623.39
894.00;622.17
896.00;620.15
898.00;624.47
900.00;621.47
902.00;620.52
904.00;618.26
906.00;617.72
908.00;611.68
910.00;610.10
912.00;614.29
914.00;616.06
916.00;613.79
918.00;619.42
920.00;614.90
922.00;612.07
924.00;610.52
926.00;606.61
928.00;606.45
930.00;610.06
932.00;608.86
934.00;610.29
936.00;608.65
938.00;608.33
940.00;607.97
942.00;609.20
944.00;604.37
946.00;605.98
948.00;617.06
950.00;632.92
952.00;645.97
954.00;652.71
956.00;642.72
958.00;633.52
960.00;615.31
962.00;610.55
964.00;602.91
966.00;604.25
968.00;601.66
970.00;603.76
972.00;603.72
974.00;604.84
976.00;606.42
978.00;598.99
980.00;602.31
982.00;604.81
984.00;599.32
986.00;600.35
988.00;602.62
990.00;600.04
992.00;600.56
994.00;598.43
996.00;602.80
998.00;602.66
1000.00;604.88
1002.00;613.94
1004.00;621.49
1006.00;626.13
1008.00;629.05
1010.00;621.04
1012.00;626.32
1014.00;614.96
1016.00;608.90
1018.00;602.56
1020.00;600.40
1022.00;605.49
1024.00;601.39
1026.00;598.61
1028.00;596.33
1030.00;597.78
1032.00;599.03
1034.00;601.47
1036.00;601.28
1038.00;600.23
1040.00;602.69
1042.00;604.73
1044.00;607.42
1046.00;609.54
1048.00;612.51
1050.00;611.36
1052.00;610.17
1054.00;608.49
1056.00;605.58
1058.00;606.01
1060.00;607.60
1062.00;600.60
1064.00;598.01
1066.00;595.12
1068.00;593.47
1070.00;592.37
1072.00;590.76
1074.00;586.17
1076.00;590.09
1078.00;586.01
1080.00;585.01
1082.00;579.78
1084.00;585.43
1086.00;586.03
1088.00;578.29
1090.00;582.38
1092.00;580.71
1094.00;580.91
1096.00;574.76
1098.00;580.98
1100.00;582.27
1102.00;583.19
1104.00;590.89
1106.00;598.97
1108.00;603.17
1110.00;605.44
1112.00;600.48
1114.00;592.30
1116.00;580.72
1118.00;575.48
1120.00;572.06
1122.00;573.28
1124.00;575.83
1126.00;578.25
1128.00;574.54
1130.00;577.27
1132.00;582.81
1134.00;587.13
1136.00;594.33
1138.00;606.85
1140.00;625.85
1142.00;642.18
1144.00;650.92
1146.00;640.06
1148.00;617.01
1150.00;593.80
1152.00;575.79
1154.00;569.48
1156.00;571.84
1158.00;574.42
1160.00;566.78
1162.00;571.62
1164.00;564.02
1166.00;565.63
1168.00;565.03
1170.00;561.82
1172.00;565.70
1174.00;563.39
1176.00;566.69
1178.00;568.61
1180.00;576.55
1182.00;581.84
1184.00;588.34
1186.00;591.84
1188.00;594.00
1190.00;595.27
1192.00;599.02
1194.00;601.84
1196.00;604.24
1198.00;599.48
1200.00;599.32
1202.00;604.12
1204.00;606.25
1206.00;607.12
1208.00;609.61
1210.00;613.34
1212.00;610.20
1214.00;608.57
1216.00;614.43
1218.00;608.89
1220.00;606.52
1222.00;599.29
1224.00;584.46
1226.00;575.58
1228.00;570.00
1230.00;567.21
1232.00;562.71
1234.00;560.95
1236.00;556.00
1238.00;558.44
1240.00;561.28
1242.00;556.06
1244.00;555.85
1246.00;552.58
1248.00;556.73
1250.00;555.44
1252.00;562.09
1254.00;561.57
1256.00;565.55
1258.00;567.60
1260.00;575.47
1262.00;579.06
1264.00;591.02
1266.00;593.87
1268.00;595.31
1270.00;601.84
1272.00;608.76
1274.00;607.04
1276.00;606.35
1278.00;609.15
1280.00;602.69
1282.00;603.10
1284.00;600.72
1286.00;602.12
1288.00;604.33
1290.00;612.48
1292.00;616.86
1294.00;622.45
1296.00;632.02
1298.00;639.82
1300.00;647.21
1302.00;655.54
1304.00;664.59
1306.00;667.63
1308.00;673.75
1310.00;663.34
1312.00;652.34
1314.00;628.80
1316.00;628.46
1318.00;612.48
1320.00;609.03
1322.00;609.09
1324.00;600.25
1326.00;608.71
1328.00;599.82
1330.00;606.63
1332.00;621.62
1334.00;638.61
1336.00;678.98
1338.00;721.07
1340.00;756.16
1342.00;769.48
1344.00;753.47
1346.00;706.47
1348.00;647.85
1350.00;605.92
1352.00;582.29
1354.00;562.66
1356.00;548.12
1358.00;552.70
1360.00;547.96
1362.00;544.80
1364.00;539.28
1366.00;538.05
1368.00;531.71
1370.00;527.84
1372.00;529.48
1374.00;532.61
1376.00;522.36
1378.00;516.00
1380.00;516.40
1382.00;514.21
1384.00;523.14
1386.00;515.72
1388.00;509.97
1390.00;512.53
1392.00;506.29
1394.00;508.44
1396.00;503.93
1398.00;510.87
1400.00;509.11
1402.00;505.51
1404.00;505.12
1406.00;511.58
1408.00;509.18
1410.00;509.70
1412.00;515.22
1414.00;515.78
1416.00;515.08
1418.00;522.03
1420.00;523.79
1422.00;530.54
1424.00;530.00
1426.00;543.39
1428.00;550.72
1430.00;565.80
1432.00;579.99
1434.00;588.17
1436.00;602.90
1438.00;605.30
1440.00;604.36
1442.00;614.42
1444.00;623.58
1446.00;621.95
1448.00;640.61
1450.00;653.39
1452.00;653.44
1454.00;628.95
1456.00;587.23
1458.00;557.11
1460.00;547.80
1462.00;522.28
1464.00;516.58
1466.00;511.47
1468.00;507.71
1470.00;504.86
1472.00;498.44
1474.00;503.86
1476.00;491.29
1478.00;497.53
1480.00;496.58
1482.00;491.95
1484.00;487.71
1486.00;492.32
1488.00;484.45
1490.00;481.83
1492.00;481.71
1494.00;483.51
1496.00;483.22
1498.00;481.36
1500.00;485.63
1502.00;487.30
1504.00;484.83
1506.00;482.31
1508.00;486.56
1510.00;490.23
1512.00;488.46
1514.00;495.71
1516.00;499.50
1518.00;508.55
1520.00;530.26
1522.00;582.84
1524.00;654.78
1526.00;761.58
1528.00;876.40
1530.00;931.75
1532.00;861.15
1534.00;760.98
1536.00;667.92
1538.00;600.92
1540.00;560.48
1542.00;533.15
1544.00;519.31
1546.00;504.41
1548.00;497.65
1550.00;488.01
1552.00;473.92
1554.00;467.89
1556.00;471.51
1558.00;471.79
1560.00;464.22
1562.00;466.22
1564.00;461.50
1566.00;456.29
1568.00;456.91
1570.00;456.91
1572.00;461.56
1574.00;448.31
1576.00;452.30
1578.00;457.58
1580.00;447.99
1582.00;449.66
1584.00;454.64
1586.00;448.68
1588.00;447.96
1590.00;453.69
1592.00;448.73
1594.00;451.17
1596.00;450.51
1598.00;452.91
1600.00;450.03
1602.00;456.32
1604.00;442.77
1606.00;452.81
1608.00;457.64
1610.00;461.01
1612.00;458.09
1614.00;446.77
1616.00;445.25
1618.00;442.99
1620.00;442.10
1622.00;443.48
1624.00;443.86
1626.00;437.61
1628.00;442.89
1630.00;444.27
1632.00;445.97
1634.00;452.16
1636.00;459.45
1638.00;465.94
1640.00;471.74
1642.00;475.26
1644.00;467.38
1646.00;478.79
1648.00;472.99
1650.00;476.10
1652.00;478.98
1654.00;471.89
1656.00;490.03
1658.00;503.28
1660.00;521.01
1662.00;543.23
1664.00;560.13
1666.00;585.72
1668.00;586.81
1670.00;574.85
1672.00;566.70
1674.00;532.82
1676.00;513.03
1678.00;481.43
1680.00;466.48
1682.00;443.41
1684.00;439.19
1686.00;430.86
1688.00;416.77
1690.00;419.44
1692.00;414.78
1694.00;410.15
1696.00;412.16
1698.00;415.02
1700.00;402.84
1702.00;411.26
1704.00;406.20
1706.00;405.76
1708.00;403.87
1710.00;402.22
1712.00;404.18
1714.00;393.67
1716.00;397.72
1718.00;391.26
1720.00;397.20
1722.00;387.86
1724.00;396.25
1726.00;394.24
1728.00;390.65
1730.00;391.30
1732.00;392.28
1734.00;383.73
1736.00;383.02
1738.00;376.68
1740.00;388.12
1742.00;383.98
1744.00;385.46
1746.00;385.48
1748.00;381.03
1750.00;385.20
1752.00;383.09
1754.00;376.11
1756.00;386.05
1758.00;385.85
1760.00;387.97
1762.00;378.17
1764.00;375.50
1766.00;378.00
1768.00;370.53
1770.00;376.98
1772.00;381.13
1774.00;371.74
1776.00;377.70
1778.00;372.31
1780.00;368.49
1782.00;371.82
1784.00;372.59
1786.00;373.97
1788.00;369.37
1790.00;374.54
1792.00;361.02
1794.00;366.37
1796.00;364.45
1798.00;365.87
1800.00;368.36
1802.00;363.76
1804.00;365.43
1806.00;359.21
1808.00;369.65
1810.00;365.79
1812.00;362.96
1814.00;365.84
1816.00;358.79
1818.00;362.47
1820.00;360.27
1822.00;365.44
1824.00;353.09
1826.00;358.27
1828.00;359.96
1830.00;359.91
1832.00;366.13
1834.00;358.12
1836.00;357.65
1838.00;351.96
1840.00;356.51
1842.00;350.16
1844.00;347.00
1846.00;352.45
1848.00;351.22
1850.00;343.88
1852.00;355.56
1854.00;355.83
1856.00;349.82
1858.00;346.92
1860.00;349.41
1862.00;348.77
1864.00;350.60
1866.00;351.84
1868.00;348.61
1870.00;345.35
1872.00;342.76
1874.00;339.70
1876.00;338.52
1878.00;348.84
1880.00;339.61
1882.00;342.71
1884.00;340.67
1886.00;348.49
1888.00;342.52
1890.00;344.16
1892.00;339.54
1894.00;336.90
1896.00;345.38
1898.00;339.77
1900.00;334.05
1902.00;336.31
1904.00;335.55
1906.00;337.17
1908.00;335.48
1910.00;339.77
1912.00;336.96
1914.00;336.90
1916.00;337.02
1918.00;337.41
1920.00;337.73
1922.00;333.29
1924.00;331.49
1926.00;339.62
1928.00;326.92
1930.00;330.23
1932.00;339.23
1934.00;329.06
1936.00;334.03
1938.00;329.99
1940.00;326.08
1942.00;329.69
1944.00;320.11
1946.00;328.82
1948.00;326.25
1950.00;323.15
1952.00;322.94
1954.00;325.79
1956.00;323.75
1958.00;323.21
1960.00;317.01
1962.00;323.16
1964.00;320.40
1966.00;325.10
1968.00;314.37
1970.00;320.89
1972.00;320.39
1974.00;321.56
1976.00;322.17
1978.00;324.22
1980.00;316.34
1982.00;317.25
1984.00;320.68
1986.00;310.55
1988.00;316.41
1990.00;329.91
1992.00;313.68
1994.00;317.46
1996.00;304.26
1998.00;321.29
2000.00;317.54
2002.00;309.28
2004.00;314.88
2006.00;317.19
2008.00;305.29
2010.00;310.22
2012.00;315.99
2014.00;309.25
2016.00;313.78
2018.00;300.05
2020.00;316.40
2022.00;299.94
2024.00;318.98
2026.00;314.42
2028.00;315.40
2030.00;310.19
2032.00;316.50
2034.00;313.21
2036.00;306.65
2038.00;302.02
2040.00;309.41
2042.00;308.21
2044.00;311.99
2046.00;304.71
2048.00;299.67
2050.00;302.10
2052.00;292.64
2054.00;320.84
2056.00;302.65
2058.00;305.58
2060.00;302.02
2062.00;309.51
2064.00;297.17
2066.00;305.20
2068.00;292.31
2070.00;310.91
2072.00;303.71
2074.00;302.32
2076.00;307.25
2078.00;292.39
2080.00;306.90
2082.00;293.31
2084.00;297.13
2086.00;300.46
2088.00;307.11
2090.00;297.22
2092.00;301.98
2094.00;304.31
2096.00;287.02
2098.00;293.44
2100.00;299.71
2102.00;297.45
2104.00;287.34
2106.00;304.86
2108.00;286.34
2110.00;295.66
2112.00;302.08
2114.00;302.73
2116.00;299.24
2118.00;277.50
2120.00;305.29
2122.00;296.22
2124.00;284.30
2126.00;289.95
2128.00;286.67
2130.00;298.24
2132.00;293.79
2134.00;298.70
2136.00;290.76
2138.00;291.90
2140.00;287.75
2142.00;288.63
2144.00;288.63
2146.00;288.62
2148.00;286.63
2150.00;291.75
2152.00;287.67
2154.00;284.40
2156.00;288.94
2158.00;274.21
2160.00;284.81
2162.00;279.32
2164.00;286.24
2166.00;289.72
2168.00;285.62
2170.00;288.56
2172.00;277.30
2174.00;286.77
2176.00;286.61
2178.00;285.90
2180.00;282.84
2182.00;294.39
2184.00;292.80
2186.00;284.03
2188.00;277.06
2190.00;283.35
2192.00;283.64
2194.00;275.67
2196.00;288.73
2198.00;278.88
2200.00;300.44
2202.00;278.65
2204.00;292.69
2206.00;291.80
2208.00;290.76
2210.00;287.24
2212.00;291.02
2214.00;284.91
2216.00;302.88
2218.00;300.76
2220.00;302.36
2222.00;296.30
2224.00;307.18
2226.00;315.28
2228.00;316.40
2230.00;343.31
2232.00;330.41
2234.00;341.12
2236.00;352.02
2238.00;335.57
2240.00;354.22
2242.00;352.70
2244.00;340.00
2246.00;325.84
2248.00;333.33
2250.00;315.86
2252.00;329.94
2254.00;305.36
2256.00;313.38
2258.00;308.61
2260.00;304.98
2262.00;297.04
2264.00;285.42
2266.00;302.04
2268.00;289.30
2270.00;292.92
2272.00;286.40
2274.00;284.97
2276.00;267.16
2278.00;282.39
2280.00;280.79
2282.00;269.05
2284.00;270.59
2286.00;277.34
2288.00;278.17
2290.00;279.08
2292.00;283.33
2294.00;275.17
2296.00;272.66
2298.00;262.95
2300.00;276.88
[ANALYSIS RESULT]
Analysis_Type;None
