AP Cora 5001
Software_Version;1.5.4
[SAMPLE]
Sample_Name;A1_t0
Method;
[PARAMETERS]
Instrument_Type;Cora 5001
Instrument_SN;99119713
Last_SST;1/30/2026 9:18:27 AM
User_Name;labmanager
Measurement_Started;1/30/2026 12:15:01 PM
Measurement_Finished;1/30/2026 12:16:02 PM
Measurement_Saved;1/30/2026 12:16:02 PM
Wavelength;785
Laser_Power;30
Auto_Exposure;False
Exposure_Time;10000
Averaged_Spectra;3
Probe_Type;Regular Probe (785 nm)
Probe_SN;99101107
Dark_Background;True
User_Background_Spectrum;
Spike_Removal;True
Baseline_Correction;False
Smoothing;False
Normalization;None
[SPECTRUM QUALITY]
Quality_Saturation;False
Quality_SBR;NaN
Quality_Temperature;False
[SPECTRUM]
100;886.034362792969
102;891.370971679688
104;893.271911621094
106;890.971984863281
108;888.809020996094
110;889.130859375
112;881.821472167969
114;870.834594726563
116;864.431091308594
118;861.69482421875
120;846.437561035156
122;836.691955566406
124;827.373107910156
126;821.824096679688
128;818.037841796875
130;806.465576171875
132;798.762756347656
134;791.651306152344
136;785.679504394531
138;781.967468261719
140;776.409301757813
142;774.292663574219
144;773.65625
146;774.129272460938
148;773.058288574219
150;771.574645996094
152;770.514282226563
154;769.432800292969
156;772.992309570313
158;771.542663574219
160;770.125
162;773.387573242188
164;766.961120605469
166;771.180236816406
168;769.227294921875
170;766.493835449219
172;765.936828613281
174;757.308959960938
176;754.052368164063
178;754.900512695313
180;749.895324707031
182;748.644470214844
184;751.390258789063
186;750.7470703125
188;748.302612304688
190;739.396789550781
192;736.183410644531
194;735.696166992188
196;729.325378417969
198;729.611022949219
200;723.432434082031
202;721.948547363281
204;722.325561523438
206;724.447937011719
208;722.55810546875
210;725.215881347656
212;720.497253417969
214;717.699340820313
216;719.255981445313
218;719.266235351563
220;717.473327636719
222;715.977783203125
224;716.081970214844
226;714.869201660156
228;711.642395019531
230;711.262268066406
232;712.218627929688
234;708.420837402344
236;714.632629394531
238;713.375061035156
240;712.045837402344
242;715.451232910156
244;712.089294433594
246;711.672729492188
248;714.730895996094
250;716.442626953125
252;715.234130859375
254;708.382995605469
256;710.540344238281
258;717.08984375
260;720.186279296875
262;723.517639160156
264;720.192749023438
266;716.312438964844
268;714.296813964844
270;719.0146484375
272;721.772766113281
274;718.078674316406
276;716.082580566406
278;716.240051269531
280;721.399536132813
282;723.200073242188
284;720.5986328125
286;722.504211425781
288;724.002319335938
290;722.930297851563
292;719.659301757813
294;723.819152832031
296;717.754577636719
298;714.63525390625
300;717.652526855469
302;715.804992675781
304;715.428527832031
306;715.389709472656
308;712.869750976563
310;713.882995605469
312;717.085266113281
314;716.388977050781
316;715.773315429688
318;716.044677734375
320;712.830810546875
322;715.491027832031
324;714.911499023438
326;714.40478515625
328;711.310485839844
330;714.782165527344
332;719.331420898438
334;714.216064453125
336;711.758056640625
338;713.346984863281
340;712.991638183594
342;708.934631347656
344;707.407897949219
346;710.580505371094
348;711.629211425781
350;706.985412597656
352;708.563842773438
354;709.731628417969
356;704.868408203125
358;711.260681152344
360;711.363037109375
362;701.4287109375
364;701.754272460938
366;703.673767089844
368;701.795776367188
370;702.9658203125
372;703.421142578125
374;703.886962890625
376;707.678833007813
378;707.771240234375
380;710.183654785156
382;713.900268554688
384;714.384460449219
386;713.251403808594
388;707.253356933594
390;709.51025390625
392;713.063293457031
394;714.194396972656
396;714.500183105469
398;721.526245117188
400;719.862121582031
402;722.218200683594
404;721.9072265625
406;726.653747558594
408;724.255615234375
410;729.958862304688
412;725.435974121094
414;723.236938476563
416;735.405517578125
418;732.207641601563
420;737.249450683594
422;742.195007324219
424;744.759582519531
426;747.619934082031
428;745.258483886719
430;748.154663085938
432;752.501953125
434;744.413635253906
436;745.606567382813
438;750.0673828125
440;750.570129394531
442;748.595397949219
444;753.892517089844
446;748.594604492188
448;749.760009765625
450;744.88525390625
452;741.242065429688
454;743.916625976563
456;731.712829589844
458;736.300720214844
460;734.853088378906
462;731.419250488281
464;735.210571289063
466;729.781982421875
468;732.777770996094
470;728.598510742188
472;726.99560546875
474;723.774780273438
476;723.518493652344
478;723.543212890625
480;721.899169921875
482;721.758178710938
484;723.400390625
486;716.512390136719
488;717.341857910156
490;718.139038085938
492;720.068481445313
494;722.393310546875
496;717.184020996094
498;714.134338378906
500;718.242065429688
502;717.73193359375
504;714.859497070313
506;713.478393554688
508;713.930603027344
510;717.334045410156
512;713.808959960938
514;712.602355957031
516;718.540771484375
518;722.000671386719
520;719.930236816406
522;724.299499511719
524;726.535705566406
526;727.254028320313
528;724.600769042969
530;724.892822265625
532;729.21533203125
534;728.931518554688
536;728.837158203125
538;729.764282226563
540;729.248962402344
542;726.180725097656
544;730.064025878906
546;728.934265136719
548;732.37060546875
550;732.399658203125
552;731.401672363281
554;734.051574707031
556;736.706237792969
558;738.147033691406
560;743.590698242188
562;742.216857910156
564;740.990478515625
566;741.204040527344
568;745.2587890625
570;746.857238769531
572;752.251098632813
574;757.593872070313
576;760.3974609375
578;758.799255371094
580;757.825622558594
582;761.849853515625
584;760.16943359375
586;763.480895996094
588;760.260803222656
590;759.1708984375
592;755.661193847656
594;763.364624023438
596;762.723327636719
598;752.94677734375
600;751.14990234375
602;753.55419921875
604;752.748840332031
606;752.378356933594
608;746.903015136719
610;745.333129882813
612;752.695983886719
614;748.165466308594
616;740.895874023438
618;741.586059570313
620;738.119140625
622;733.35205078125
624;740.031066894531
626;735.755432128906
628;735.47705078125
630;732.016479492188
632;731.194274902344
634;728.873046875
636;732.217346191406
638;733.542724609375
640;728.666687011719
642;724.995483398438
644;727.700012207031
646;729.225891113281
648;724.422607421875
650;725.965515136719
652;726.303955078125
654;724.905944824219
656;727.837585449219
658;728.331237792969
660;726.51708984375
662;730.55810546875
664;731.731994628906
666;729.065795898438
668;728.205017089844
670;725.885131835938
672;729.273803710938
674;729.006042480469
676;731.361267089844
678;728.641174316406
680;730.42724609375
682;735.103820800781
684;731.466674804688
686;729.909118652344
688;728.403564453125
690;729.814575195313
692;731.069580078125
694;732.908020019531
696;733.517578125
698;734.840026855469
700;731.910522460938
702;730.63818359375
704;729.702209472656
706;734.577209472656
708;736.321960449219
710;740.310791015625
712;731.043395996094
714;732.938781738281
716;736.097351074219
718;735.165832519531
720;736.754943847656
722;736.849426269531
724;731.606872558594
726;735.763793945313
728;736.232055664063
730;737.897766113281
732;736.107849121094
734;733.099426269531
736;732.486022949219
738;730.473571777344
740;734.878234863281
742;735.45849609375
744;733.204345703125
746;733.222106933594
748;737.207885742188
750;738.085754394531
752;737.824829101563
754;736.298034667969
756;732.849975585938
758;735.586669921875
760;732.886962890625
762;735.780212402344
764;736.551086425781
766;731.182739257813
768;732.686218261719
770;736.440979003906
772;738.007080078125
774;736.236694335938
776;733.953491210938
778;730.824584960938
780;731.505249023438
782;737.332763671875
784;734.04833984375
786;734.89208984375
788;732.716613769531
790;731.499450683594
792;731.4970703125
794;734.383666992188
796;736.406555175781
798;731.364807128906
800;734.865112304688
802;730.976684570313
804;733.810119628906
806;736.675842285156
808;739.514770507813
810;739.691467285156
812;744.24169921875
814;749.798767089844
816;742.063842773438
818;742.873962402344
820;747.178588867188
822;739.755432128906
824;737.390991210938
826;736.110778808594
828;738.544860839844
830;741.323791503906
832;736.680908203125
834;737.651184082031
836;737.159423828125
838;741.826354980469
840;743.800476074219
842;740.623901367188
844;744.5048828125
846;754.940307617188
848;759.272766113281
850;758.312866210938
852;759.080505371094
854;755.601135253906
856;761.099365234375
858;757.81982421875
860;757.471740722656
862;752.475219726563
864;751.139709472656
866;756.496826171875
868;759.056396484375
870;762.386962890625
872;758.47705078125
874;757.842346191406
876;756.151733398438
878;754.011108398438
880;751.729431152344
882;749.80029296875
884;751.7978515625
886;752.66650390625
888;747.882385253906
890;747.793823242188
892;746.089660644531
894;747.775268554688
896;747.88916015625
898;748.729248046875
900;745.099853515625
902;743.9951171875
904;742.425598144531
906;737.838928222656
908;738.08837890625
910;745.171997070313
912;746.579895019531
914;746.804809570313
916;746.89013671875
918;757.680969238281
920;759.5703125
922;765.130737304688
924;761.397766113281
926;760.118408203125
928;762.943481445313
930;769.751525878906
932;774.315246582031
934;777.416442871094
936;792.436157226563
938;797.954345703125
940;811.645690917969
942;820.802917480469
944;838.147216796875
946;855.299133300781
948;884.212585449219
950;915.731140136719
952;952.742492675781
954;988.957214355469
956;1025.79943847656
958;1046.16369628906
960;1044.13549804688
962;1032.1416015625
964;996.196594238281
966;949.087829589844
968;901.84375
970;858.116943359375
972;828.603637695313
974;806.575622558594
976;779.485534667969
978;761.582458496094
980;747.16162109375
982;740.713745117188
984;735.414611816406
986;732.6474609375
988;723.476196289063
990;722.75048828125
992;721.643371582031
994;722.364807128906
996;722.347900390625
998;724.587280273438
1000;731.89501953125
1002;733.756469726563
1004;737.366455078125
1006;736.194030761719
1008;730.949462890625
1010;730.178100585938
1012;731.881713867188
1014;726.888549804688
1016;730.122924804688
1018;727.994567871094
1020;728.415771484375
1022;732.060607910156
1024;732.924621582031
1026;735.468078613281
1028;738.443420410156
1030;738.740295410156
1032;737.752685546875
1034;738.568054199219
1036;735.71484375
1038;740.144775390625
1040;736.827331542969
1042;741.451782226563
1044;742.11962890625
1046;742.434204101563
1048;737.685119628906
1050;735.668212890625
1052;733.784057617188
1054;740.828918457031
1056;737.755981445313
1058;736.825073242188
1060;744.743225097656
1062;752.4384765625
1064;753.448547363281
1066;757.479431152344
1068;760.811340332031
1070;768.1474609375
1072;764.138488769531
1074;762.625854492188
1076;764.968933105469
1078;749.735229492188
1080;742.380065917969
1082;737.197570800781
1084;730.612915039063
1086;729.381958007813
1088;721.100891113281
1090;719.019897460938
1092;716.437622070313
1094;715.258056640625
1096;713.877685546875
1098;708.747863769531
1100;708.393432617188
1102;706.650939941406
1104;700.684204101563
1106;699.309204101563
1108;698.574523925781
1110;694.855590820313
1112;696.6591796875
1114;690.432800292969
1116;686.671691894531
1118;681.5302734375
1120;684.500183105469
1122;682.931091308594
1124;683.560119628906
1126;683.620422363281
1128;677.08544921875
1130;685.758972167969
1132;681.670471191406
1134;680.492065429688
1136;675.11962890625
1138;670.211120605469
1140;671.738037109375
1142;670.803833007813
1144;670.617553710938
1146;674.686096191406
1148;669.777282714844
1150;673.396789550781
1152;672.28271484375
1154;674.577880859375
1156;673.956481933594
1158;676.712158203125
1160;677.241577148438
1162;674.358032226563
1164;672.536865234375
1166;669.615478515625
1168;674.126770019531
1170;676.221313476563
1172;673.149475097656
1174;672.858703613281
1176;676.203247070313
1178;677.242858886719
1180;671.246276855469
1182;669.088745117188
1184;669.802307128906
1186;673.005859375
1188;666.647094726563
1190;672.301330566406
1192;672.189331054688
1194;675.615661621094
1196;666.711853027344
1198;673.258544921875
1200;674.696044921875
1202;674.424194335938
1204;673.922729492188
1206;674.527038574219
1208;676.282836914063
1210;674.180725097656
1212;670.742248535156
1214;668.251220703125
1216;668.845275878906
1218;667.118591308594
1220;664.018737792969
1222;663.602600097656
1224;668.083618164063
1226;668.817138671875
1228;678.090454101563
1230;678.745849609375
1232;683.765197753906
1234;681.121765136719
1236;682.212097167969
1238;689.668334960938
1240;692.645812988281
1242;691.781860351563
1244;693.544494628906
1246;695.67431640625
1248;697.828796386719
1250;696.392150878906
1252;699.812194824219
1254;696.025268554688
1256;692.806518554688
1258;689.13671875
1260;687.294006347656
1262;691.955871582031
1264;695.032531738281
1266;688.564270019531
1268;694.542724609375
1270;691.20263671875
1272;689.914367675781
1274;693.428649902344
1276;692.283752441406
1278;685.585632324219
1280;682.040588378906
1282;675.634765625
1284;676.198120117188
1286;677.740966796875
1288;668.219360351563
1290;673.602722167969
1292;670.910583496094
1294;668.57861328125
1296;670.644348144531
1298;669.3525390625
1300;669.305847167969
1302;668.397155761719
1304;667.916320800781
1306;669.915466308594
1308;660.456726074219
1310;664.526000976563
1312;661.232971191406
1314;659.113220214844
1316;659.856384277344
1318;663.33056640625
1320;665.412902832031
1322;659.905578613281
1324;651.20068359375
1326;661.05615234375
1328;659.671691894531
1330;656.420654296875
1332;662.999877929688
1334;653.354064941406
1336;657.644836425781
1338;664.366943359375
1340;661.867553710938
1342;659.05615234375
1344;652.670104980469
1346;656.435119628906
1348;655.021118164063
1350;647.522705078125
1352;648.396606445313
1354;646.067932128906
1356;645.01220703125
1358;642.814086914063
1360;645.869079589844
1362;644.646118164063
1364;642.149108886719
1366;643.210388183594
1368;641.727600097656
1370;646.539672851563
1372;648.313415527344
1374;651.879028320313
1376;652.963256835938
1378;652.3271484375
1380;652.295593261719
1382;652.690185546875
1384;642.793823242188
1386;647.435302734375
1388;652.520568847656
1390;644.089294433594
1392;651.756591796875
1394;660.273010253906
1396;648.797180175781
1398;650.713134765625
1400;652.02783203125
1402;651.406372070313
1404;648.109619140625
1406;643.289855957031
1408;647.801940917969
1410;647.891723632813
1412;641.234069824219
1414;646.008544921875
1416;642.045959472656
1418;644.381164550781
1420;654.3974609375
1422;649.416809082031
1424;652.379821777344
1426;656.431762695313
1428;659.920349121094
1430;656.846374511719
1432;655.870544433594
1434;663.084838867188
1436;657.876281738281
1438;661.191833496094
1440;664.925048828125
1442;669.749633789063
1444;669.67822265625
1446;674.873229980469
1448;673.805908203125
1450;682.318786621094
1452;672.770874023438
1454;675.87353515625
1456;670.096008300781
1458;668.816345214844
1460;670.567443847656
1462;664.455261230469
1464;658.382751464844
1466;655.140380859375
1468;650.633117675781
1470;633.833251953125
1472;634.095397949219
1474;631.895935058594
1476;622.052490234375
1478;621.822448730469
1480;625.167358398438
1482;616.75
1484;615.447204589844
1486;604.853698730469
1488;606.028259277344
1490;606.325317382813
1492;599.04443359375
1494;597.564514160156
1496;596.845153808594
1498;592.053833007813
1500;596.185485839844
1502;595.496948242188
1504;595.68408203125
1506;597.250671386719
1508;591.990539550781
1510;598.428283691406
1512;592.54736328125
1514;595.029235839844
1516;592.135620117188
1518;592.366027832031
1520;586.96142578125
1522;591.396728515625
1524;590.376892089844
1526;584.134887695313
1528;590.232849121094
1530;586.257934570313
1532;585.433288574219
1534;583.598876953125
1536;587.574035644531
1538;590.827941894531
1540;585.300048828125
1542;585.250061035156
1544;587.187316894531
1546;585.194030761719
1548;580.138793945313
1550;581.267883300781
1552;586.952270507813
1554;578.592895507813
1556;580.791687011719
1558;584.77587890625
1560;587.089599609375
1562;579.567321777344
1564;579.4248046875
1566;578.64501953125
1568;583.109680175781
1570;574.996337890625
1572;577.615783691406
1574;578.232421875
1576;579.989440917969
1578;580.933654785156
1580;580.654541015625
1582;584.284729003906
1584;583.137878417969
1586;578.507263183594
1588;581.363952636719
1590;576.139526367188
1592;579.470458984375
1594;581.307983398438
1596;577.035034179688
1598;578.339782714844
1600;590.658142089844
1602;595.241821289063
1604;564.272521972656
1606;580.887329101563
1608;577.908447265625
1610;571.121032714844
1612;574.738708496094
1614;578.990173339844
1616;580.339904785156
1618;574.5380859375
1620;584.107604980469
1622;583.524536132813
1624;588.741638183594
1626;588.5078125
1628;579.492431640625
1630;589.213195800781
1632;590.726196289063
1634;584.1435546875
1636;589.048278808594
1638;586.689514160156
1640;584.893249511719
1642;588.746276855469
1644;590.698181152344
1646;593.70654296875
1648;596.319763183594
1650;602.5400390625
1652;595.126953125
1654;590.572143554688
1656;593.284240722656
1658;594.316467285156
1660;599.375122070313
1662;601.958374023438
1664;595.681762695313
1666;592.350769042969
1668;596.880310058594
1670;591.029296875
1672;598.415954589844
1674;585.700622558594
1676;579.643432617188
1678;574.33544921875
1680;583.967956542969
1682;575.236694335938
1684;569.157775878906
1686;572.556091308594
1688;561.860900878906
1690;562.535705566406
1692;560.910888671875
1694;557.480529785156
1696;550.234008789063
1698;555.55712890625
1700;547.932861328125
1702;540.9072265625
1704;541.036499023438
1706;537.665893554688
1708;544.6796875
1710;529.1953125
1712;537.45947265625
1714;535.348937988281
1716;533.902587890625
1718;527.78369140625
1720;532.281433105469
1722;527.179260253906
1724;524.245300292969
1726;525.694580078125
1728;527.89599609375
1730;525.557373046875
1732;520.008056640625
1734;521.25
1736;520.888061523438
1738;517.12744140625
1740;519.899536132813
1742;512.620422363281
1744;520.079650878906
1746;520.462097167969
1748;522.049072265625
1750;509.837554931641
1752;518.970397949219
1754;525.384521484375
1756;521.810852050781
1758;516.971252441406
1760;509.993713378906
1762;513.076232910156
1764;518.5732421875
1766;514.105041503906
1768;513.039611816406
1770;513.778991699219
1772;507.392761230469
1774;506.884002685547
1776;507.820037841797
1778;504.260955810547
1780;509.403900146484
1782;505.660430908203
1784;509.671844482422
1786;506.634674072266
1788;502.622711181641
1790;508.496795654297
1792;498.739410400391
1794;507.230224609375
1796;505.036743164063
1798;505.045074462891
1800;494.665252685547
1802;502.401214599609
1804;507.80078125
1806;500.048980712891
1808;507.500274658203
1810;502.798492431641
1812;501.766448974609
1814;492.494476318359
1816;506.110107421875
1818;492.803741455078
1820;498.579498291016
1822;486.552490234375
1824;501.202575683594
1826;484.796234130859
1828;494.154174804688
1830;492.073028564453
1832;495.790679931641
1834;493.463836669922
1836;485.052215576172
1838;491.374420166016
1840;485.431488037109
1842;490.267486572266
1844;486.560913085938
1846;490.791229248047
1848;487.215881347656
1850;487.381744384766
1852;481.682922363281
1854;487.613098144531
1856;482.700134277344
1858;479.100860595703
1860;479.55517578125
1862;480.703094482422
1864;483.218017578125
1866;472.8603515625
1868;479.954071044922
1870;473.552886962891
1872;480.216003417969
1874;481.293395996094
1876;473.807403564453
1878;469.385467529297
1880;477.779968261719
1882;468.80322265625
1884;473.040557861328
1886;466.399139404297
1888;470.038391113281
1890;458.720275878906
1892;475.222259521484
1894;462.15869140625
1896;471.216613769531
1898;471.509063720703
1900;469.109527587891
1902;463.673126220703
1904;469.834991455078
1906;468.264709472656
1908;467.531555175781
1910;463.673706054688
1912;461.217407226563
1914;462.883850097656
1916;464.318481445313
1918;469.714691162109
1920;467.509704589844
1922;468.55908203125
1924;452.831207275391
1926;464.022277832031
1928;465.725402832031
1930;453.442810058594
1932;454.552398681641
1934;450.230316162109
1936;452.390991210938
1938;461.137145996094
1940;468.703460693359
1942;452.885803222656
1944;464.504974365234
1946;450.162719726563
1948;458.72509765625
1950;463.979248046875
1952;453.825592041016
1954;448.159423828125
1956;447.14697265625
1958;455.443206787109
1960;461.700256347656
1962;444.514739990234
1964;454.421020507813
1966;449.483459472656
1968;448.831756591797
1970;448.571746826172
1972;450.721496582031
1974;442.658172607422
1976;449.015960693359
1978;452.104583740234
1980;441.740905761719
1982;448.305328369141
1984;428.755218505859
1986;443.718872070313
1988;433.842163085938
1990;453.959106445313
1992;431.215209960938
1994;452.376037597656
1996;441.92529296875
1998;442.405212402344
2000;443.76904296875
2002;439.389282226563
2004;437.966156005859
2006;449.410797119141
2008;440.811187744141
2010;447.562377929688
2012;443.637512207031
2014;444.606079101563
2016;434.062713623047
2018;436.723175048828
2020;441.298919677734
2022;437.504058837891
2024;434.565887451172
2026;433.375854492188
2028;432.228424072266
2030;434.648406982422
2032;446.329650878906
2034;436.393310546875
2036;435.131988525391
2038;430.596069335938
2040;426.364135742188
2042;433.041137695313
2044;440.029632568359
2046;414.929534912109
2048;426.320007324219
2050;432.833770751953
2052;421.903472900391
2054;423.43310546875
2056;411.942230224609
2058;422.292114257813
2060;426.732055664063
2062;433.012023925781
2064;428.40869140625
2066;427.026733398438
2068;427.256225585938
2070;424.789642333984
2072;437.600952148438
2074;423.368927001953
2076;419.509826660156
2078;433.418609619141
2080;428.242980957031
2082;431.306945800781
2084;424.917114257813
2086;412.874267578125
2088;423.1005859375
2090;420.022186279297
2092;430.304992675781
2094;410.488403320313
2096;433.770050048828
2098;432.619171142578
2100;417.70556640625
2102;423.994079589844
2104;420.434265136719
2106;417.157928466797
2108;407.908142089844
2110;418.574401855469
2112;407.529876708984
2114;417.171264648438
2116;424.174835205078
2118;406.355651855469
2120;418.631958007813
2122;411.850555419922
2124;425.247619628906
2126;400.360046386719
2128;411.216430664063
2130;404.939025878906
2132;406.861145019531
2134;404.525909423828
2136;408.585693359375
2138;410.639831542969
2140;407.385986328125
2142;398.6337890625
2144;408.922607421875
2146;406.97265625
2148;398.749389648438
2150;408.478820800781
2152;406.621795654297
2154;401.024749755859
2156;409.652160644531
2158;397.767547607422
2160;412.183776855469
2162;397.171997070313
2164;409.589813232422
2166;405.765808105469
2168;405.550842285156
2170;411.133575439453
2172;406.855285644531
2174;398.324523925781
2176;402.410522460938
2178;395.097381591797
2180;407.950469970703
2182;396.096649169922
2184;390.659393310547
2186;393.088317871094
2188;385.709350585938
2190;403.306121826172
2192;405.921875
2194;391.573516845703
2196;400.730590820313
2198;401.976745605469
2200;396.406585693359
2202;414.714202880859
2204;397.609405517578
2206;397.842254638672
2208;389.306945800781
2210;388.96435546875
2212;396.110717773438
2214;411.682037353516
2216;397.612579345703
2218;402.500823974609
2220;381.357879638672
2222;389.582977294922
2224;398.150512695313
2226;400.563659667969
2228;402.002319335938
2230;391.542907714844
2232;405.861267089844
2234;390.838470458984
2236;372.23876953125
2238;384.856811523438
2240;380.463470458984
2242;379.883178710938
2244;369.751708984375
2246;374.165161132813
2248;379.250885009766
2250;382.774597167969
2252;388.323791503906
2254;385.031555175781
2256;382.649719238281
2258;382.996612548828
2260;375.767791748047
2262;383.05419921875
2264;382.710601806641
2266;391.640289306641
2268;369.011352539063
2270;389.608367919922
2272;399.072509765625
2274;376.777191162109
2276;365.978851318359
2278;377.956878662109
2280;398.736450195313
2282;379.644287109375
2284;384.415649414063
2286;386.565856933594
2288;361.911499023438
2290;383.959289550781
2292;382.637664794922
2294;398.363922119141
2296;373.392791748047
2298;390.918701171875
2300;381.903778076172
