AP Cora 5001
Software_Version;1.4.1
[SAMPLE]
Sample_Name;Bov_denat2_after_3
Method;
[PARAMETERS]
Instrument_Type;Cora 5001
Instrument_SN;99119713
Last_SST;2/13/2024 2:05:45 PM +00:00
User_Name;labmanager
Measurement_Started;2/13/2024 5:55:39 PM
Measurement_Finished;2/13/2024 5:56:39 PM
Measurement_Saved;2/13/2024 5:56:39 PM
Wavelength;785
Laser_Power;30
Auto_Exposure;False
Exposure_Time;10000
Averaged_Spectra;3
Probe_Type;Regular Probe (785 nm)
Probe_SN;99101107
Dark_Background;True
User_Background_Spectrum;
Spike_Removal;True
Baseline_Correction;False
Smoothing;False
Normalization;None
[SPECTRUM QUALITY]
Quality_Saturation;False
Quality_SBR;NaN
Quality_Temperature;False
[SPECTRUM]
100.00;10532.24
102.00;10530.65
104.00;10533.19
106.00;10536.43
108.00;10524.36
110.00;10257.14
112.00;9686.16
114.00;9170.79
116.00;8647.68
118.00;8132.10
120.00;7645.53
122.00;7176.21
124.00;6747.99
126.00;6347.94
128.00;6014.52
130.00;5704.07
132.00;5429.99
134.00;5191.32
136.00;4985.31
138.00;4801.44
140.00;4639.55
142.00;4522.55
144.00;4422.65
146.00;4333.43
148.00;4265.35
150.00;4201.27
152.00;4164.95
154.00;4138.49
156.00;4106.00
158.00;4086.04
160.00;4063.70
162.00;4047.72
164.00;4043.41
166.00;4027.77
168.00;4018.95
170.00;4014.87
172.00;4006.65
174.00;3992.68
176.00;3987.91
178.00;3974.69
180.00;3960.53
182.00;3958.43
184.00;3937.72
186.00;3922.44
188.00;3923.01
190.00;3913.61
192.00;3905.71
194.00;3890.05
196.00;3871.90
198.00;3872.22
200.00;3863.01
202.00;3872.16
204.00;3867.59
206.00;3860.52
208.00;3872.57
210.00;3869.07
212.00;3866.31
214.00;3863.81
216.00;3867.47
218.00;3862.38
220.00;3860.38
222.00;3853.61
224.00;3839.32
226.00;3839.35
228.00;3833.68
230.00;3826.33
232.00;3824.18
234.00;3821.55
236.00;3821.67
238.00;3820.87
240.00;3833.51
242.00;3828.52
244.00;3823.66
246.00;3813.95
248.00;3827.29
250.00;3832.49
252.00;3828.01
254.00;3844.13
256.00;3841.54
258.00;3847.04
260.00;3849.66
262.00;3854.71
264.00;3843.97
266.00;3853.32
268.00;3864.41
270.00;3860.21
272.00;3848.83
274.00;3847.92
276.00;3850.48
278.00;3837.68
280.00;3840.88
282.00;3847.10
284.00;3837.29
286.00;3836.48
288.00;3838.88
290.00;3836.24
292.00;3822.85
294.00;3815.48
296.00;3817.99
298.00;3811.97
300.00;3808.50
302.00;3798.24
304.00;3790.86
306.00;3794.89
308.00;3786.74
310.00;3776.48
312.00;3775.95
314.00;3774.76
316.00;3773.87
318.00;3774.69
320.00;3770.70
322.00;3768.42
324.00;3772.06
326.00;3779.05
328.00;3771.06
330.00;3766.43
332.00;3764.74
334.00;3767.33
336.00;3758.86
338.00;3763.16
340.00;3769.26
342.00;3761.40
344.00;3762.21
346.00;3765.15
348.00;3752.20
350.00;3747.69
352.00;3748.61
354.00;3738.64
356.00;3736.60
358.00;3737.98
360.00;3729.70
362.00;3720.45
364.00;3720.33
366.00;3723.04
368.00;3719.31
370.00;3711.28
372.00;3703.37
374.00;3693.71
376.00;3693.80
378.00;3697.11
380.00;3701.98
382.00;3700.50
384.00;3706.05
386.00;3704.18
388.00;3707.48
390.00;3700.47
392.00;3696.50
394.00;3691.48
396.00;3689.19
398.00;3698.31
400.00;3691.70
402.00;3699.01
404.00;3704.54
406.00;3707.91
408.00;3706.97
410.00;3722.13
412.00;3715.01
414.00;3719.15
416.00;3726.97
418.00;3720.35
420.00;3728.55
422.00;3739.39
424.00;3745.62
426.00;3760.62
428.00;3762.57
430.00;3771.18
432.00;3765.80
434.00;3761.27
436.00;3761.89
438.00;3746.37
440.00;3747.44
442.00;3757.49
444.00;3759.73
446.00;3753.28
448.00;3726.08
450.00;3718.84
452.00;3709.58
454.00;3693.15
456.00;3691.09
458.00;3690.84
460.00;3687.79
462.00;3683.92
464.00;3687.66
466.00;3673.56
468.00;3663.47
470.00;3649.02
472.00;3643.73
474.00;3616.28
476.00;3617.21
478.00;3608.16
480.00;3601.39
482.00;3592.25
484.00;3595.90
486.00;3591.23
488.00;3594.47
490.00;3608.44
492.00;3603.13
494.00;3603.13
496.00;3604.20
498.00;3603.62
500.00;3594.13
502.00;3583.37
504.00;3576.18
506.00;3572.22
508.00;3576.20
510.00;3575.67
512.00;3582.11
514.00;3579.24
516.00;3572.15
518.00;3583.55
520.00;3585.05
522.00;3582.55
524.00;3583.24
526.00;3576.81
528.00;3588.68
530.00;3599.34
532.00;3590.88
534.00;3587.75
536.00;3568.28
538.00;3565.50
540.00;3569.22
542.00;3563.39
544.00;3569.29
546.00;3575.16
548.00;3578.17
550.00;3568.56
552.00;3568.11
554.00;3572.70
556.00;3579.98
558.00;3579.74
560.00;3585.38
562.00;3584.27
564.00;3580.20
566.00;3596.02
568.00;3599.55
570.00;3591.11
572.00;3583.55
574.00;3596.40
576.00;3612.85
578.00;3613.77
580.00;3617.44
582.00;3626.12
584.00;3630.06
586.00;3623.21
588.00;3627.25
590.00;3616.97
592.00;3606.97
594.00;3599.62
596.00;3591.30
598.00;3576.48
600.00;3570.15
602.00;3557.42
604.00;3548.13
606.00;3542.73
608.00;3528.34
610.00;3532.09
612.00;3530.54
614.00;3524.71
616.00;3528.22
618.00;3524.91
620.00;3514.63
622.00;3511.15
624.00;3498.36
626.00;3489.39
628.00;3483.66
630.00;3470.47
632.00;3456.10
634.00;3459.99
636.00;3453.81
638.00;3449.99
640.00;3449.05
642.00;3432.79
644.00;3429.63
646.00;3428.75
648.00;3419.34
650.00;3415.53
652.00;3414.11
654.00;3416.92
656.00;3409.18
658.00;3408.02
660.00;3416.89
662.00;3412.49
664.00;3399.26
666.00;3392.75
668.00;3387.52
670.00;3392.47
672.00;3395.32
674.00;3389.07
676.00;3387.62
678.00;3383.90
680.00;3373.33
682.00;3365.34
684.00;3371.11
686.00;3372.62
688.00;3376.72
690.00;3365.88
692.00;3358.84
694.00;3358.68
696.00;3370.12
698.00;3368.42
700.00;3357.86
702.00;3351.97
704.00;3346.07
706.00;3338.37
708.00;3334.42
710.00;3333.74
712.00;3332.95
714.00;3325.01
716.00;3330.90
718.00;3330.54
720.00;3326.16
722.00;3327.60
724.00;3326.74
726.00;3326.85
728.00;3324.10
730.00;3319.76
732.00;3318.38
734.00;3320.11
736.00;3315.66
738.00;3312.62
740.00;3309.99
742.00;3299.40
744.00;3288.85
746.00;3290.42
748.00;3287.59
750.00;3290.07
752.00;3281.73
754.00;3286.89
756.00;3281.74
758.00;3272.78
760.00;3274.44
762.00;3276.79
764.00;3269.13
766.00;3267.67
768.00;3258.26
770.00;3253.44
772.00;3252.63
774.00;3256.29
776.00;3244.53
778.00;3239.09
780.00;3241.02
782.00;3233.62
784.00;3233.69
786.00;3233.78
788.00;3233.13
790.00;3236.55
792.00;3230.52
794.00;3225.88
796.00;3229.91
798.00;3228.12
800.00;3216.87
802.00;3218.63
804.00;3217.89
806.00;3212.12
808.00;3220.42
810.00;3227.56
812.00;3239.26
814.00;3235.50
816.00;3236.11
818.00;3224.35
820.00;3218.64
822.00;3220.80
824.00;3219.11
826.00;3214.88
828.00;3209.82
830.00;3215.78
832.00;3218.47
834.00;3208.59
836.00;3202.83
838.00;3196.01
840.00;3194.00
842.00;3196.11
844.00;3205.05
846.00;3232.04
848.00;3237.48
850.00;3230.54
852.00;3204.36
854.00;3198.86
856.00;3196.90
858.00;3201.46
860.00;3196.26
862.00;3204.34
864.00;3203.92
866.00;3198.47
868.00;3201.09
870.00;3204.53
872.00;3206.50
874.00;3202.01
876.00;3194.78
878.00;3196.97
880.00;3195.81
882.00;3187.79
884.00;3195.71
886.00;3193.01
888.00;3192.90
890.00;3191.24
892.00;3193.11
894.00;3180.07
896.00;3179.42
898.00;3179.40
900.00;3183.78
902.00;3177.36
904.00;3170.81
906.00;3162.17
908.00;3166.49
910.00;3163.12
912.00;3167.98
914.00;3178.31
916.00;3195.48
918.00;3192.91
920.00;3189.25
922.00;3195.77
924.00;3201.55
926.00;3197.69
928.00;3191.27
930.00;3193.58
932.00;3211.02
934.00;3212.72
936.00;3228.74
938.00;3242.59
940.00;3268.08
942.00;3293.80
944.00;3326.51
946.00;3369.96
948.00;3448.33
950.00;3531.39
952.00;3621.41
954.00;3721.03
956.00;3827.54
958.00;3908.58
960.00;3971.32
962.00;3965.94
964.00;3909.41
966.00;3810.87
968.00;3688.02
970.00;3574.19
972.00;3468.91
974.00;3374.00
976.00;3303.99
978.00;3239.41
980.00;3199.81
982.00;3177.44
984.00;3152.18
986.00;3147.60
988.00;3133.33
990.00;3127.58
992.00;3111.34
994.00;3112.51
996.00;3118.25
998.00;3114.30
1000.00;3119.56
1002.00;3119.34
1004.00;3116.94
1006.00;3102.47
1008.00;3101.05
1010.00;3109.14
1012.00;3102.78
1014.00;3103.35
1016.00;3105.22
1018.00;3111.89
1020.00;3119.14
1022.00;3107.87
1024.00;3119.35
1026.00;3117.32
1028.00;3124.63
1030.00;3117.48
1032.00;3114.41
1034.00;3110.39
1036.00;3115.36
1038.00;3107.46
1040.00;3112.65
1042.00;3113.21
1044.00;3115.32
1046.00;3114.03
1048.00;3118.47
1050.00;3107.24
1052.00;3113.32
1054.00;3110.96
1056.00;3112.48
1058.00;3125.11
1060.00;3121.57
1062.00;3135.75
1064.00;3154.89
1066.00;3167.45
1068.00;3174.42
1070.00;3180.19
1072.00;3174.17
1074.00;3177.00
1076.00;3169.77
1078.00;3152.10
1080.00;3114.85
1082.00;3095.15
1084.00;3073.04
1086.00;3082.53
1088.00;3060.12
1090.00;3045.81
1092.00;3027.64
1094.00;3014.51
1096.00;3012.31
1098.00;3001.06
1100.00;3000.28
1102.00;2999.67
1104.00;2993.24
1106.00;2991.14
1108.00;2994.85
1110.00;2989.30
1112.00;2981.50
1114.00;2971.95
1116.00;2954.96
1118.00;2945.84
1120.00;2947.93
1122.00;2940.58
1124.00;2942.28
1126.00;2935.00
1128.00;2940.85
1130.00;2934.90
1132.00;2933.92
1134.00;2934.93
1136.00;2929.65
1138.00;2927.37
1140.00;2926.84
1142.00;2918.79
1144.00;2920.38
1146.00;2922.83
1148.00;2911.26
1150.00;2916.11
1152.00;2912.60
1154.00;2912.77
1156.00;2921.81
1158.00;2911.44
1160.00;2911.79
1162.00;2919.29
1164.00;2916.08
1166.00;2916.80
1168.00;2916.14
1170.00;2912.58
1172.00;2913.03
1174.00;2917.88
1176.00;2916.40
1178.00;2907.31
1180.00;2894.68
1182.00;2893.21
1184.00;2902.42
1186.00;2903.16
1188.00;2908.14
1190.00;2903.44
1192.00;2913.70
1194.00;2905.32
1196.00;2908.16
1198.00;2912.06
1200.00;2919.98
1202.00;2920.73
1204.00;2912.83
1206.00;2925.15
1208.00;2936.69
1210.00;2944.98
1212.00;2946.35
1214.00;2943.52
1216.00;2950.79
1218.00;2947.00
1220.00;2944.39
1222.00;2942.47
1224.00;2940.72
1226.00;2933.67
1228.00;2936.07
1230.00;2955.39
1232.00;2956.47
1234.00;2959.96
1236.00;2958.25
1238.00;2963.98
1240.00;2955.79
1242.00;2971.89
1244.00;2967.92
1246.00;2962.75
1248.00;2945.63
1250.00;2948.26
1252.00;2942.28
1254.00;2941.89
1256.00;2934.05
1258.00;2932.73
1260.00;2943.33
1262.00;2934.16
1264.00;2927.73
1266.00;2932.69
1268.00;2930.52
1270.00;2936.58
1272.00;2923.96
1274.00;2926.96
1276.00;2918.15
1278.00;2919.20
1280.00;2909.45
1282.00;2891.72
1284.00;2891.47
1286.00;2888.11
1288.00;2891.87
1290.00;2897.70
1292.00;2890.09
1294.00;2885.96
1296.00;2882.30
1298.00;2882.95
1300.00;2882.51
1302.00;2881.49
1304.00;2885.59
1306.00;2899.16
1308.00;2896.89
1310.00;2886.28
1312.00;2884.55
1314.00;2892.89
1316.00;2892.69
1318.00;2892.58
1320.00;2881.97
1322.00;2888.14
1324.00;2892.03
1326.00;2886.27
1328.00;2888.51
1330.00;2884.28
1332.00;2880.86
1334.00;2877.10
1336.00;2883.56
1338.00;2887.03
1340.00;2887.71
1342.00;2881.55
1344.00;2878.68
1346.00;2880.87
1348.00;2870.54
1350.00;2858.94
1352.00;2852.38
1354.00;2867.04
1356.00;2856.57
1358.00;2860.95
1360.00;2866.41
1362.00;2868.20
1364.00;2866.04
1366.00;2853.64
1368.00;2856.42
1370.00;2856.05
1372.00;2863.72
1374.00;2862.28
1376.00;2852.47
1378.00;2851.53
1380.00;2851.89
1382.00;2855.41
1384.00;2869.20
1386.00;2869.24
1388.00;2873.14
1390.00;2861.34
1392.00;2863.55
1394.00;2868.40
1396.00;2881.58
1398.00;2868.68
1400.00;2861.95
1402.00;2863.34
1404.00;2869.07
1406.00;2868.85
1408.00;2868.91
1410.00;2874.62
1412.00;2866.82
1414.00;2866.62
1416.00;2865.85
1418.00;2867.04
1420.00;2880.01
1422.00;2871.88
1424.00;2866.60
1426.00;2877.88
1428.00;2866.47
1430.00;2877.37
1432.00;2878.02
1434.00;2887.51
1436.00;2887.01
1438.00;2894.53
1440.00;2899.26
1442.00;2915.42
1444.00;2921.40
1446.00;2928.81
1448.00;2937.01
1450.00;2937.81
1452.00;2928.48
1454.00;2922.41
1456.00;2908.05
1458.00;2900.54
1460.00;2903.09
1462.00;2898.59
1464.00;2891.82
1466.00;2883.66
1468.00;2885.47
1470.00;2856.00
1472.00;2862.43
1474.00;2862.90
1476.00;2851.79
1478.00;2838.67
1480.00;2837.92
1482.00;2822.26
1484.00;2815.40
1486.00;2806.50
1488.00;2797.26
1490.00;2800.28
1492.00;2798.66
1494.00;2793.93
1496.00;2785.12
1498.00;2781.73
1500.00;2773.73
1502.00;2777.81
1504.00;2772.32
1506.00;2771.48
1508.00;2771.13
1510.00;2771.32
1512.00;2776.48
1514.00;2776.19
1516.00;2776.85
1518.00;2779.11
1520.00;2780.58
1522.00;2762.47
1524.00;2765.81
1526.00;2766.58
1528.00;2763.86
1530.00;2764.63
1532.00;2769.95
1534.00;2774.53
1536.00;2778.56
1538.00;2769.00
1540.00;2758.98
1542.00;2764.75
1544.00;2755.59
1546.00;2768.70
1548.00;2759.41
1550.00;2758.37
1552.00;2757.04
1554.00;2759.14
1556.00;2752.72
1558.00;2743.14
1560.00;2743.03
1562.00;2749.45
1564.00;2747.12
1566.00;2753.04
1568.00;2742.46
1570.00;2739.72
1572.00;2738.38
1574.00;2753.40
1576.00;2758.38
1578.00;2752.54
1580.00;2741.97
1582.00;2744.82
1584.00;2741.70
1586.00;2741.52
1588.00;2735.27
1590.00;2744.82
1592.00;2756.33
1594.00;2754.74
1596.00;2746.93
1598.00;2757.33
1600.00;2766.74
1602.00;2759.57
1604.00;2745.59
1606.00;2753.82
1608.00;2744.86
1610.00;2739.58
1612.00;2743.20
1614.00;2732.51
1616.00;2735.59
1618.00;2725.43
1620.00;2734.18
1622.00;2749.26
1624.00;2749.11
1626.00;2743.99
1628.00;2747.91
1630.00;2759.48
1632.00;2760.30
1634.00;2762.36
1636.00;2766.88
1638.00;2779.16
1640.00;2785.17
1642.00;2789.95
1644.00;2789.16
1646.00;2773.45
1648.00;2769.10
1650.00;2783.38
1652.00;2784.63
1654.00;2777.04
1656.00;2783.13
1658.00;2780.61
1660.00;2785.53
1662.00;2801.32
1664.00;2780.83
1666.00;2787.39
1668.00;2811.37
1670.00;2800.24
1672.00;2802.54
1674.00;2804.06
1676.00;2808.43
1678.00;2812.72
1680.00;2800.61
1682.00;2808.48
1684.00;2798.14
1686.00;2788.26
1688.00;2764.64
1690.00;2769.18
1692.00;2762.90
1694.00;2765.55
1696.00;2756.75
1698.00;2755.55
1700.00;2733.60
1702.00;2727.13
1704.00;2730.47
1706.00;2702.72
1708.00;2700.52
1710.00;2695.40
1712.00;2698.35
1714.00;2688.86
1716.00;2698.83
1718.00;2675.83
1720.00;2686.07
1722.00;2661.72
1724.00;2670.27
1726.00;2665.31
1728.00;2653.07
1730.00;2655.29
1732.00;2658.76
1734.00;2650.57
1736.00;2635.61
1738.00;2636.65
1740.00;2649.10
1742.00;2658.30
1744.00;2652.11
1746.00;2633.02
1748.00;2632.29
1750.00;2648.25
1752.00;2645.09
1754.00;2647.78
1756.00;2651.12
1758.00;2647.18
1760.00;2638.37
1762.00;2631.96
1764.00;2618.03
1766.00;2600.31
1768.00;2623.64
1770.00;2629.70
1772.00;2632.09
1774.00;2633.11
1776.00;2626.97
1778.00;2620.66
1780.00;2606.78
1782.00;2622.30
1784.00;2609.96
1786.00;2594.84
1788.00;2587.83
1790.00;2597.71
1792.00;2576.49
1794.00;2593.68
1796.00;2596.18
1798.00;2599.37
1800.00;2608.94
1802.00;2600.71
1804.00;2586.00
1806.00;2596.59
1808.00;2584.78
1810.00;2576.96
1812.00;2590.90
1814.00;2619.28
1816.00;2609.11
1818.00;2601.53
1820.00;2593.53
1822.00;2599.42
1824.00;2578.77
1826.00;2590.67
1828.00;2588.80
1830.00;2601.19
1832.00;2586.16
1834.00;2604.05
1836.00;2597.41
1838.00;2588.75
1840.00;2586.02
1842.00;2589.63
1844.00;2575.73
1846.00;2576.87
1848.00;2573.04
1850.00;2579.61
1852.00;2579.90
1854.00;2587.58
1856.00;2582.91
1858.00;2574.56
1860.00;2592.08
1862.00;2598.55
1864.00;2575.35
1866.00;2569.57
1868.00;2565.45
1870.00;2546.82
1872.00;2564.36
1874.00;2552.81
1876.00;2546.89
1878.00;2564.86
1880.00;2545.93
1882.00;2555.86
1884.00;2561.54
1886.00;2551.56
1888.00;2558.27
1890.00;2568.79
1892.00;2551.10
1894.00;2537.31
1896.00;2548.29
1898.00;2552.11
1900.00;2560.52
1902.00;2560.97
1904.00;2563.60
1906.00;2534.13
1908.00;2542.05
1910.00;2544.91
1912.00;2536.57
1914.00;2551.36
1916.00;2547.21
1918.00;2556.95
1920.00;2557.96
1922.00;2568.58
1924.00;2550.64
1926.00;2541.41
1928.00;2531.92
1930.00;2523.00
1932.00;2532.04
1934.00;2522.26
1936.00;2532.02
1938.00;2535.15
1940.00;2530.92
1942.00;2530.15
1944.00;2512.09
1946.00;2513.44
1948.00;2524.44
1950.00;2512.12
1952.00;2502.87
1954.00;2516.60
1956.00;2525.21
1958.00;2529.73
1960.00;2513.90
1962.00;2528.24
1964.00;2501.09
1966.00;2518.36
1968.00;2502.90
1970.00;2512.14
1972.00;2515.99
1974.00;2523.30
1976.00;2491.67
1978.00;2501.89
1980.00;2487.11
1982.00;2495.61
1984.00;2492.69
1986.00;2483.19
1988.00;2493.92
1990.00;2498.44
1992.00;2496.88
1994.00;2487.52
1996.00;2503.81
1998.00;2499.99
2000.00;2483.78
2002.00;2495.52
2004.00;2471.40
2006.00;2478.73
2008.00;2468.24
2010.00;2453.05
2012.00;2471.18
2014.00;2453.24
2016.00;2461.61
2018.00;2467.24
2020.00;2487.89
2022.00;2478.16
2024.00;2478.13
2026.00;2486.82
2028.00;2471.88
2030.00;2478.38
2032.00;2465.78
2034.00;2447.73
2036.00;2455.79
2038.00;2461.78
2040.00;2451.35
2042.00;2445.86
2044.00;2454.31
2046.00;2460.78
2048.00;2454.21
2050.00;2473.32
2052.00;2443.08
2054.00;2465.05
2056.00;2441.37
2058.00;2452.92
2060.00;2447.48
2062.00;2453.53
2064.00;2453.64
2066.00;2457.87
2068.00;2473.98
2070.00;2449.72
2072.00;2432.71
2074.00;2427.83
2076.00;2419.34
2078.00;2439.94
2080.00;2441.63
2082.00;2442.55
2084.00;2421.87
2086.00;2433.04
2088.00;2440.15
2090.00;2447.91
2092.00;2441.38
2094.00;2431.86
2096.00;2457.58
2098.00;2444.91
2100.00;2436.37
2102.00;2443.16
2104.00;2437.36
2106.00;2445.38
2108.00;2430.89
2110.00;2436.11
2112.00;2413.13
2114.00;2424.88
2116.00;2446.57
2118.00;2450.53
2120.00;2444.01
2122.00;2425.37
2124.00;2438.66
2126.00;2423.84
2128.00;2437.07
2130.00;2431.92
2132.00;2423.21
2134.00;2414.04
2136.00;2392.97
2138.00;2393.39
2140.00;2413.57
2142.00;2412.49
2144.00;2390.49
2146.00;2407.10
2148.00;2410.26
2150.00;2424.41
2152.00;2399.38
2154.00;2398.69
2156.00;2392.21
2158.00;2399.62
2160.00;2388.89
2162.00;2372.32
2164.00;2423.91
2166.00;2395.00
2168.00;2404.51
2170.00;2382.63
2172.00;2396.45
2174.00;2359.44
2176.00;2397.57
2178.00;2397.94
2180.00;2385.07
2182.00;2390.57
2184.00;2398.06
2186.00;2405.49
2188.00;2388.26
2190.00;2387.54
2192.00;2376.14
2194.00;2393.08
2196.00;2383.10
2198.00;2376.11
2200.00;2387.28
2202.00;2382.64
2204.00;2372.64
2206.00;2365.59
2208.00;2375.11
2210.00;2354.59
2212.00;2360.23
2214.00;2384.75
2216.00;2365.34
2218.00;2364.38
2220.00;2347.98
2222.00;2357.04
2224.00;2353.65
2226.00;2360.60
2228.00;2357.60
2230.00;2361.78
2232.00;2356.25
2234.00;2327.47
2236.00;2337.91
2238.00;2342.83
2240.00;2343.06
2242.00;2337.54
2244.00;2339.83
2246.00;2339.30
2248.00;2345.79
2250.00;2312.57
2252.00;2319.60
2254.00;2341.06
2256.00;2335.73
2258.00;2355.06
2260.00;2323.88
2262.00;2348.03
2264.00;2342.96
2266.00;2362.49
2268.00;2336.60
2270.00;2351.96
2272.00;2348.21
2274.00;2355.29
2276.00;2340.08
2278.00;2349.92
2280.00;2353.16
2282.00;2343.73
2284.00;2346.38
2286.00;2331.80
2288.00;2325.32
2290.00;2362.59
2292.00;2325.29
2294.00;2326.74
2296.00;2304.50
2298.00;2323.23
2300.00;2311.65
[ANALYSIS RESULT]
Analysis_Type;None
