AP Cora 5001
Software_Version;1.4.1
[SAMPLE]
Sample_Name;Sample2_plexiform_2
Method;
[PARAMETERS]
Instrument_Type;Cora 5001
Instrument_SN;99119713
Last_SST;3/7/2024 1:00:25 PM +00:00
User_Name;labmanager
Measurement_Started;3/7/2024 3:52:36 PM
Measurement_Finished;3/7/2024 3:53:07 PM
Measurement_Saved;3/7/2024 3:53:07 PM
Wavelength;785
Laser_Power;30
Auto_Exposure;False
Exposure_Time;5000
Averaged_Spectra;3
Probe_Type;Regular Probe (785 nm)
Probe_SN;99101107
Dark_Background;True
User_Background_Spectrum;
Spike_Removal;True
Baseline_Correction;False
Smoothing;False
Normalization;None
[SPECTRUM QUALITY]
Quality_Saturation;False
Quality_SBR;NaN
Quality_Temperature;False
[SPECTRUM]
100.00;5708.45
102.00;5530.39
104.00;5340.52
106.00;5135.04
108.00;4900.01
110.00;4643.99
112.00;4374.60
114.00;4098.40
116.00;3823.84
118.00;3554.88
120.00;3279.35
122.00;3023.50
124.00;2797.89
126.00;2580.45
128.00;2379.58
130.00;2201.58
132.00;2046.63
134.00;1909.80
136.00;1780.14
138.00;1670.21
140.00;1580.37
142.00;1496.39
144.00;1425.66
146.00;1360.99
148.00;1310.34
150.00;1270.05
152.00;1246.37
154.00;1218.07
156.00;1195.95
158.00;1175.24
160.00;1164.13
162.00;1152.82
164.00;1139.28
166.00;1135.88
168.00;1127.98
170.00;1120.18
172.00;1119.78
174.00;1114.64
176.00;1104.05
178.00;1101.78
180.00;1100.47
182.00;1088.98
184.00;1089.38
186.00;1087.84
188.00;1085.26
190.00;1085.16
192.00;1079.50
194.00;1077.06
196.00;1073.32
198.00;1070.41
200.00;1063.00
202.00;1062.38
204.00;1065.25
206.00;1067.32
208.00;1066.98
210.00;1069.35
212.00;1072.33
214.00;1071.32
216.00;1068.81
218.00;1071.64
220.00;1074.88
222.00;1071.37
224.00;1068.18
226.00;1067.59
228.00;1065.24
230.00;1067.42
232.00;1072.91
234.00;1068.23
236.00;1070.85
238.00;1071.03
240.00;1069.36
242.00;1074.05
244.00;1072.36
246.00;1074.82
248.00;1077.92
250.00;1078.97
252.00;1082.93
254.00;1082.40
256.00;1081.85
258.00;1084.25
260.00;1087.63
262.00;1089.73
264.00;1092.00
266.00;1094.92
268.00;1097.08
270.00;1099.07
272.00;1100.69
274.00;1100.85
276.00;1100.09
278.00;1099.01
280.00;1102.18
282.00;1105.96
284.00;1098.76
286.00;1098.55
288.00;1102.90
290.00;1098.64
292.00;1107.63
294.00;1099.46
296.00;1098.85
298.00;1103.70
300.00;1105.88
302.00;1107.58
304.00;1105.06
306.00;1106.78
308.00;1106.02
310.00;1106.00
312.00;1104.42
314.00;1102.28
316.00;1105.41
318.00;1111.73
320.00;1107.26
322.00;1104.82
324.00;1106.95
326.00;1109.71
328.00;1112.20
330.00;1112.40
332.00;1109.50
334.00;1109.09
336.00;1111.72
338.00;1112.63
340.00;1115.80
342.00;1114.66
344.00;1112.54
346.00;1115.82
348.00;1113.45
350.00;1113.64
352.00;1120.93
354.00;1119.94
356.00;1118.08
358.00;1120.79
360.00;1118.64
362.00;1117.98
364.00;1114.86
366.00;1111.11
368.00;1117.39
370.00;1120.04
372.00;1117.66
374.00;1122.34
376.00;1121.30
378.00;1120.77
380.00;1122.65
382.00;1125.75
384.00;1126.28
386.00;1127.55
388.00;1130.18
390.00;1127.31
392.00;1128.33
394.00;1133.78
396.00;1134.49
398.00;1140.59
400.00;1143.82
402.00;1143.77
404.00;1144.00
406.00;1148.89
408.00;1149.82
410.00;1149.65
412.00;1147.86
414.00;1156.84
416.00;1156.53
418.00;1160.39
420.00;1162.57
422.00;1168.51
424.00;1167.89
426.00;1174.99
428.00;1179.60
430.00;1181.67
432.00;1185.60
434.00;1184.28
436.00;1181.74
438.00;1178.70
440.00;1181.61
442.00;1178.85
444.00;1182.13
446.00;1173.97
448.00;1174.49
450.00;1173.30
452.00;1176.87
454.00;1175.80
456.00;1177.01
458.00;1177.65
460.00;1174.25
462.00;1171.00
464.00;1168.21
466.00;1167.82
468.00;1170.12
470.00;1168.65
472.00;1164.12
474.00;1163.54
476.00;1156.70
478.00;1153.09
480.00;1155.31
482.00;1153.11
484.00;1154.47
486.00;1160.48
488.00;1160.55
490.00;1160.69
492.00;1165.93
494.00;1165.70
496.00;1164.42
498.00;1166.34
500.00;1163.47
502.00;1167.25
504.00;1164.15
506.00;1157.55
508.00;1166.84
510.00;1167.58
512.00;1165.77
514.00;1166.82
516.00;1173.36
518.00;1175.34
520.00;1178.95
522.00;1179.64
524.00;1182.04
526.00;1181.13
528.00;1183.93
530.00;1181.70
532.00;1181.95
534.00;1183.05
536.00;1180.27
538.00;1181.07
540.00;1181.94
542.00;1183.05
544.00;1192.31
546.00;1188.25
548.00;1191.38
550.00;1194.34
552.00;1192.92
554.00;1191.75
556.00;1198.85
558.00;1203.37
560.00;1203.85
562.00;1205.05
564.00;1205.58
566.00;1211.38
568.00;1209.23
570.00;1208.83
572.00;1216.03
574.00;1219.80
576.00;1221.06
578.00;1217.77
580.00;1224.06
582.00;1232.28
584.00;1229.99
586.00;1228.27
588.00;1224.05
590.00;1229.51
592.00;1226.96
594.00;1227.17
596.00;1225.51
598.00;1225.45
600.00;1224.81
602.00;1228.07
604.00;1219.01
606.00;1219.92
608.00;1219.42
610.00;1224.06
612.00;1222.25
614.00;1217.25
616.00;1214.54
618.00;1220.03
620.00;1214.33
622.00;1213.06
624.00;1210.24
626.00;1208.12
628.00;1212.57
630.00;1207.27
632.00;1202.03
634.00;1202.69
636.00;1202.27
638.00;1201.69
640.00;1206.51
642.00;1207.16
644.00;1202.51
646.00;1200.88
648.00;1201.37
650.00;1203.10
652.00;1206.04
654.00;1207.29
656.00;1201.84
658.00;1207.32
660.00;1208.08
662.00;1207.98
664.00;1207.35
666.00;1201.76
668.00;1203.95
670.00;1202.46
672.00;1207.34
674.00;1207.31
676.00;1207.23
678.00;1202.38
680.00;1207.65
682.00;1204.43
684.00;1204.51
686.00;1209.12
688.00;1209.04
690.00;1212.13
692.00;1211.45
694.00;1209.47
696.00;1214.92
698.00;1212.84
700.00;1213.51
702.00;1206.35
704.00;1211.35
706.00;1212.64
708.00;1215.51
710.00;1215.10
712.00;1211.50
714.00;1204.89
716.00;1210.45
718.00;1205.80
720.00;1213.25
722.00;1212.98
724.00;1218.26
726.00;1222.65
728.00;1218.01
730.00;1218.66
732.00;1218.95
734.00;1220.99
736.00;1218.83
738.00;1218.00
740.00;1219.37
742.00;1216.64
744.00;1217.86
746.00;1215.19
748.00;1213.90
750.00;1214.76
752.00;1216.83
754.00;1219.15
756.00;1221.08
758.00;1217.68
760.00;1220.63
762.00;1218.20
764.00;1218.25
766.00;1215.35
768.00;1213.74
770.00;1223.94
772.00;1217.89
774.00;1215.11
776.00;1217.07
778.00;1218.58
780.00;1217.23
782.00;1215.89
784.00;1217.04
786.00;1222.68
788.00;1221.35
790.00;1220.84
792.00;1218.28
794.00;1214.73
796.00;1215.88
798.00;1217.62
800.00;1219.34
802.00;1218.59
804.00;1224.16
806.00;1219.97
808.00;1224.78
810.00;1231.21
812.00;1231.07
814.00;1235.85
816.00;1233.10
818.00;1230.78
820.00;1229.33
822.00;1222.92
824.00;1231.78
826.00;1228.96
828.00;1224.56
830.00;1230.69
832.00;1227.29
834.00;1230.90
836.00;1234.60
838.00;1224.08
840.00;1229.35
842.00;1233.41
844.00;1235.28
846.00;1246.79
848.00;1246.91
850.00;1247.25
852.00;1244.62
854.00;1241.84
856.00;1246.30
858.00;1245.38
860.00;1245.29
862.00;1245.46
864.00;1240.01
866.00;1238.32
868.00;1235.91
870.00;1242.55
872.00;1242.07
874.00;1246.24
876.00;1249.57
878.00;1245.31
880.00;1246.19
882.00;1243.42
884.00;1241.35
886.00;1242.70
888.00;1239.41
890.00;1244.90
892.00;1243.22
894.00;1243.97
896.00;1251.19
898.00;1246.87
900.00;1243.11
902.00;1242.29
904.00;1245.37
906.00;1241.37
908.00;1241.63
910.00;1241.87
912.00;1242.99
914.00;1243.06
916.00;1250.52
918.00;1255.33
920.00;1262.29
922.00;1262.46
924.00;1257.25
926.00;1258.54
928.00;1262.47
930.00;1264.02
932.00;1264.72
934.00;1268.43
936.00;1273.61
938.00;1281.27
940.00;1295.04
942.00;1300.46
944.00;1316.37
946.00;1327.95
948.00;1353.02
950.00;1385.08
952.00;1420.47
954.00;1456.48
956.00;1490.39
958.00;1522.19
960.00;1528.12
962.00;1517.89
964.00;1483.01
966.00;1450.89
968.00;1411.02
970.00;1372.11
972.00;1335.51
974.00;1306.06
976.00;1288.01
978.00;1273.77
980.00;1262.51
982.00;1256.45
984.00;1247.45
986.00;1241.13
988.00;1242.73
990.00;1239.50
992.00;1239.37
994.00;1238.96
996.00;1236.90
998.00;1239.41
1000.00;1245.99
1002.00;1253.72
1004.00;1253.71
1006.00;1250.10
1008.00;1247.47
1010.00;1244.76
1012.00;1245.16
1014.00;1244.86
1016.00;1245.71
1018.00;1246.83
1020.00;1246.77
1022.00;1248.10
1024.00;1252.11
1026.00;1248.87
1028.00;1245.06
1030.00;1254.48
1032.00;1248.19
1034.00;1248.14
1036.00;1254.05
1038.00;1257.26
1040.00;1257.51
1042.00;1253.82
1044.00;1251.16
1046.00;1254.02
1048.00;1257.31
1050.00;1257.04
1052.00;1257.19
1054.00;1260.13
1056.00;1261.21
1058.00;1256.17
1060.00;1258.06
1062.00;1259.77
1064.00;1266.31
1066.00;1268.24
1068.00;1271.34
1070.00;1275.68
1072.00;1271.46
1074.00;1272.23
1076.00;1272.68
1078.00;1265.68
1080.00;1254.14
1082.00;1246.55
1084.00;1241.20
1086.00;1243.57
1088.00;1239.78
1090.00;1236.72
1092.00;1227.17
1094.00;1231.85
1096.00;1230.59
1098.00;1220.74
1100.00;1220.15
1102.00;1228.17
1104.00;1220.99
1106.00;1220.53
1108.00;1220.89
1110.00;1217.67
1112.00;1205.79
1114.00;1209.59
1116.00;1213.48
1118.00;1205.35
1120.00;1210.75
1122.00;1200.56
1124.00;1203.70
1126.00;1206.00
1128.00;1206.99
1130.00;1205.98
1132.00;1202.91
1134.00;1200.58
1136.00;1200.18
1138.00;1198.76
1140.00;1202.00
1142.00;1196.25
1144.00;1193.84
1146.00;1195.68
1148.00;1193.91
1150.00;1202.01
1152.00;1194.16
1154.00;1196.60
1156.00;1200.67
1158.00;1200.18
1160.00;1203.48
1162.00;1196.68
1164.00;1193.21
1166.00;1200.27
1168.00;1192.84
1170.00;1193.95
1172.00;1196.29
1174.00;1191.57
1176.00;1197.97
1178.00;1202.47
1180.00;1189.75
1182.00;1189.51
1184.00;1192.49
1186.00;1188.65
1188.00;1186.52
1190.00;1190.01
1192.00;1197.24
1194.00;1190.79
1196.00;1192.76
1198.00;1189.50
1200.00;1190.18
1202.00;1193.07
1204.00;1193.38
1206.00;1191.34
1208.00;1193.87
1210.00;1193.69
1212.00;1188.62
1214.00;1189.45
1216.00;1189.00
1218.00;1189.68
1220.00;1184.82
1222.00;1188.98
1224.00;1190.07
1226.00;1184.68
1228.00;1187.11
1230.00;1192.29
1232.00;1197.62
1234.00;1196.81
1236.00;1199.75
1238.00;1202.66
1240.00;1206.70
1242.00;1202.71
1244.00;1202.28
1246.00;1204.30
1248.00;1206.25
1250.00;1203.55
1252.00;1199.39
1254.00;1189.88
1256.00;1193.53
1258.00;1192.07
1260.00;1192.10
1262.00;1190.87
1264.00;1192.19
1266.00;1192.02
1268.00;1195.65
1270.00;1192.57
1272.00;1186.14
1274.00;1194.64
1276.00;1187.02
1278.00;1181.72
1280.00;1183.72
1282.00;1181.10
1284.00;1179.42
1286.00;1179.51
1288.00;1178.15
1290.00;1179.07
1292.00;1175.09
1294.00;1170.50
1296.00;1172.08
1298.00;1172.92
1300.00;1165.16
1302.00;1159.83
1304.00;1166.56
1306.00;1165.63
1308.00;1165.32
1310.00;1162.34
1312.00;1166.25
1314.00;1167.96
1316.00;1158.61
1318.00;1164.51
1320.00;1165.37
1322.00;1166.02
1324.00;1162.25
1326.00;1162.15
1328.00;1158.44
1330.00;1158.64
1332.00;1158.76
1334.00;1153.92
1336.00;1153.85
1338.00;1149.56
1340.00;1154.89
1342.00;1159.19
1344.00;1152.57
1346.00;1157.10
1348.00;1153.50
1350.00;1147.75
1352.00;1156.24
1354.00;1153.74
1356.00;1156.24
1358.00;1147.51
1360.00;1147.15
1362.00;1145.94
1364.00;1144.41
1366.00;1139.81
1368.00;1146.66
1370.00;1139.31
1372.00;1148.15
1374.00;1149.13
1376.00;1146.92
1378.00;1145.45
1380.00;1145.79
1382.00;1137.61
1384.00;1149.66
1386.00;1145.93
1388.00;1151.28
1390.00;1145.32
1392.00;1147.33
1394.00;1140.54
1396.00;1141.28
1398.00;1133.71
1400.00;1136.91
1402.00;1139.75
1404.00;1128.97
1406.00;1133.45
1408.00;1135.53
1410.00;1132.59
1412.00;1135.33
1414.00;1132.50
1416.00;1132.19
1418.00;1136.22
1420.00;1133.16
1422.00;1134.39
1424.00;1129.05
1426.00;1129.19
1428.00;1132.36
1430.00;1127.07
1432.00;1130.19
1434.00;1125.64
1436.00;1133.63
1438.00;1129.37
1440.00;1137.52
1442.00;1136.50
1444.00;1136.21
1446.00;1138.18
1448.00;1140.87
1450.00;1142.93
1452.00;1140.35
1454.00;1139.30
1456.00;1129.75
1458.00;1130.23
1460.00;1137.18
1462.00;1133.70
1464.00;1126.28
1466.00;1122.44
1468.00;1122.45
1470.00;1106.59
1472.00;1107.18
1474.00;1103.98
1476.00;1094.47
1478.00;1095.55
1480.00;1091.73
1482.00;1091.36
1484.00;1092.42
1486.00;1085.39
1488.00;1081.84
1490.00;1076.24
1492.00;1086.85
1494.00;1079.68
1496.00;1073.85
1498.00;1073.04
1500.00;1068.56
1502.00;1073.03
1504.00;1070.10
1506.00;1068.79
1508.00;1065.46
1510.00;1057.68
1512.00;1060.32
1514.00;1073.21
1516.00;1062.30
1518.00;1064.00
1520.00;1061.76
1522.00;1063.26
1524.00;1059.89
1526.00;1062.52
1528.00;1057.72
1530.00;1056.93
1532.00;1055.64
1534.00;1053.36
1536.00;1050.68
1538.00;1051.30
1540.00;1051.29
1542.00;1046.80
1544.00;1040.56
1546.00;1050.03
1548.00;1047.73
1550.00;1047.43
1552.00;1047.35
1554.00;1043.01
1556.00;1043.65
1558.00;1038.47
1560.00;1037.02
1562.00;1038.37
1564.00;1031.85
1566.00;1029.92
1568.00;1030.52
1570.00;1036.04
1572.00;1033.37
1574.00;1034.42
1576.00;1032.17
1578.00;1032.51
1580.00;1037.60
1582.00;1026.49
1584.00;1027.90
1586.00;1034.31
1588.00;1026.72
1590.00;1027.44
1592.00;1020.33
1594.00;1022.14
1596.00;1026.83
1598.00;1028.48
1600.00;1024.42
1602.00;1038.02
1604.00;1016.53
1606.00;1027.22
1608.00;1025.24
1610.00;1023.41
1612.00;1026.38
1614.00;1015.03
1616.00;1017.54
1618.00;1020.85
1620.00;1024.99
1622.00;1021.53
1624.00;1023.33
1626.00;1020.96
1628.00;1023.46
1630.00;1022.37
1632.00;1020.27
1634.00;1019.96
1636.00;1016.73
1638.00;1014.00
1640.00;1021.11
1642.00;1020.99
1644.00;1020.19
1646.00;1019.34
1648.00;1016.06
1650.00;1019.23
1652.00;1013.70
1654.00;1018.17
1656.00;1012.64
1658.00;1011.57
1660.00;1011.43
1662.00;1009.43
1664.00;1013.47
1666.00;1002.58
1668.00;1003.99
1670.00;1009.61
1672.00;1012.08
1674.00;1001.98
1676.00;999.67
1678.00;1000.35
1680.00;997.54
1682.00;989.68
1684.00;992.33
1686.00;987.51
1688.00;983.33
1690.00;992.00
1692.00;976.35
1694.00;975.68
1696.00;967.49
1698.00;963.84
1700.00;963.99
1702.00;967.77
1704.00;967.82
1706.00;959.72
1708.00;951.91
1710.00;956.90
1712.00;958.65
1714.00;946.29
1716.00;952.84
1718.00;949.21
1720.00;943.25
1722.00;932.34
1724.00;938.96
1726.00;935.60
1728.00;929.92
1730.00;933.24
1732.00;927.65
1734.00;933.93
1736.00;925.87
1738.00;916.36
1740.00;923.26
1742.00;923.32
1744.00;926.84
1746.00;917.32
1748.00;932.03
1750.00;926.40
1752.00;917.80
1754.00;921.91
1756.00;926.20
1758.00;918.37
1760.00;919.82
1762.00;910.76
1764.00;920.05
1766.00;909.24
1768.00;906.08
1770.00;913.87
1772.00;906.13
1774.00;915.16
1776.00;912.13
1778.00;896.72
1780.00;903.09
1782.00;902.05
1784.00;898.07
1786.00;899.66
1788.00;898.47
1790.00;894.61
1792.00;890.68
1794.00;898.04
1796.00;892.42
1798.00;892.36
1800.00;886.24
1802.00;896.84
1804.00;889.49
1806.00;893.55
1808.00;890.95
1810.00;887.09
1812.00;886.17
1814.00;889.33
1816.00;890.92
1818.00;882.92
1820.00;887.48
1822.00;876.49
1824.00;867.42
1826.00;882.28
1828.00;880.08
1830.00;863.12
1832.00;873.36
1834.00;872.43
1836.00;863.72
1838.00;863.42
1840.00;881.19
1842.00;872.85
1844.00;874.89
1846.00;873.09
1848.00;865.65
1850.00;862.07
1852.00;864.46
1854.00;859.12
1856.00;858.18
1858.00;846.82
1860.00;846.08
1862.00;859.20
1864.00;852.70
1866.00;855.09
1868.00;845.69
1870.00;836.71
1872.00;842.12
1874.00;835.13
1876.00;841.17
1878.00;833.00
1880.00;835.09
1882.00;830.25
1884.00;839.79
1886.00;835.25
1888.00;832.46
1890.00;832.33
1892.00;844.67
1894.00;822.67
1896.00;834.14
1898.00;831.66
1900.00;828.24
1902.00;830.02
1904.00;828.50
1906.00;825.46
1908.00;818.69
1910.00;833.04
1912.00;829.72
1914.00;815.42
1916.00;813.57
1918.00;817.07
1920.00;822.91
1922.00;810.89
1924.00;815.76
1926.00;818.16
1928.00;817.00
1930.00;808.01
1932.00;811.27
1934.00;812.42
1936.00;812.80
1938.00;814.05
1940.00;801.67
1942.00;817.88
1944.00;802.78
1946.00;799.92
1948.00;803.05
1950.00;800.52
1952.00;795.13
1954.00;794.85
1956.00;788.61
1958.00;801.05
1960.00;799.67
1962.00;794.35
1964.00;789.73
1966.00;788.76
1968.00;787.20
1970.00;789.21
1972.00;782.42
1974.00;774.21
1976.00;786.09
1978.00;784.28
1980.00;773.04
1982.00;772.46
1984.00;769.55
1986.00;775.95
1988.00;781.53
1990.00;773.36
1992.00;785.57
1994.00;762.26
1996.00;768.94
1998.00;770.72
2000.00;762.14
2002.00;770.53
2004.00;762.50
2006.00;771.84
2008.00;765.32
2010.00;761.04
2012.00;757.70
2014.00;771.78
2016.00;751.21
2018.00;767.18
2020.00;767.36
2022.00;749.90
2024.00;761.22
2026.00;766.76
2028.00;758.95
2030.00;762.36
2032.00;748.68
2034.00;751.28
2036.00;757.89
2038.00;759.37
2040.00;750.54
2042.00;742.46
2044.00;751.38
2046.00;756.47
2048.00;740.82
2050.00;744.67
2052.00;741.59
2054.00;743.74
2056.00;734.36
2058.00;747.29
2060.00;745.23
2062.00;738.46
2064.00;733.57
2066.00;735.61
2068.00;746.28
2070.00;728.60
2072.00;730.47
2074.00;729.11
2076.00;724.71
2078.00;730.61
2080.00;741.37
2082.00;734.69
2084.00;718.50
2086.00;742.06
2088.00;711.47
2090.00;731.90
2092.00;721.83
2094.00;713.76
2096.00;735.34
2098.00;716.64
2100.00;723.94
2102.00;732.16
2104.00;722.82
2106.00;721.89
2108.00;712.60
2110.00;719.23
2112.00;701.81
2114.00;724.97
2116.00;709.37
2118.00;713.21
2120.00;714.74
2122.00;718.77
2124.00;706.19
2126.00;703.57
2128.00;710.01
2130.00;707.85
2132.00;704.79
2134.00;702.08
2136.00;689.35
2138.00;702.06
2140.00;701.42
2142.00;697.08
2144.00;696.24
2146.00;691.47
2148.00;689.42
2150.00;685.16
2152.00;687.29
2154.00;697.90
2156.00;685.14
2158.00;681.53
2160.00;689.87
2162.00;676.58
2164.00;693.11
2166.00;696.19
2168.00;705.30
2170.00;685.11
2172.00;692.95
2174.00;680.35
2176.00;690.33
2178.00;675.70
2180.00;680.15
2182.00;679.42
2184.00;691.71
2186.00;692.98
2188.00;678.72
2190.00;686.70
2192.00;674.02
2194.00;672.50
2196.00;669.71
2198.00;681.69
2200.00;677.16
2202.00;681.43
2204.00;662.85
2206.00;675.78
2208.00;671.87
2210.00;677.99
2212.00;677.48
2214.00;672.00
2216.00;670.33
2218.00;679.66
2220.00;665.89
2222.00;672.32
2224.00;672.93
2226.00;659.79
2228.00;675.27
2230.00;662.67
2232.00;657.72
2234.00;655.37
2236.00;657.65
2238.00;651.46
2240.00;657.45
2242.00;650.63
2244.00;659.16
2246.00;665.02
2248.00;641.99
2250.00;660.72
2252.00;655.48
2254.00;640.32
2256.00;656.64
2258.00;635.64
2260.00;644.45
2262.00;646.58
2264.00;637.75
2266.00;652.20
2268.00;639.46
2270.00;650.38
2272.00;646.77
2274.00;666.16
2276.00;629.81
2278.00;630.03
2280.00;637.22
2282.00;617.24
2284.00;644.84
2286.00;647.05
2288.00;642.51
2290.00;638.41
2292.00;650.66
2294.00;638.31
2296.00;619.69
2298.00;640.29
2300.00;614.83
[ANALYSIS RESULT]
Analysis_Type;None
