AP Cora 5001
Software_Version;1.4.1
[SAMPLE]
Sample_Name;Bov_denat1_before_1
Method;
[PARAMETERS]
Instrument_Type;Cora 5001
Instrument_SN;99119713
Last_SST;2/13/2024 2:05:45 PM +00:00
User_Name;labmanager
Measurement_Started;2/13/2024 3:27:02 PM
Measurement_Finished;2/13/2024 3:28:03 PM
Measurement_Saved;2/13/2024 3:28:03 PM
Wavelength;785
Laser_Power;30
Auto_Exposure;False
Exposure_Time;10000
Averaged_Spectra;3
Probe_Type;Regular Probe (785 nm)
Probe_SN;99101107
Dark_Background;True
User_Background_Spectrum;
Spike_Removal;True
Baseline_Correction;False
Smoothing;False
Normalization;None
[SPECTRUM QUALITY]
Quality_Saturation;False
Quality_SBR;NaN
Quality_Temperature;False
[SPECTRUM]
100.00;6795.99
102.00;6630.38
104.00;6439.22
106.00;6237.67
108.00;6023.98
110.00;5814.66
112.00;5588.25
114.00;5351.66
116.00;5140.09
118.00;4914.79
120.00;4724.25
122.00;4542.12
124.00;4382.81
126.00;4221.29
128.00;4096.03
130.00;3991.25
132.00;3889.46
134.00;3793.44
136.00;3719.50
138.00;3654.36
140.00;3599.14
142.00;3557.77
144.00;3517.46
146.00;3486.89
148.00;3463.77
150.00;3451.86
152.00;3442.67
154.00;3435.26
156.00;3439.50
158.00;3445.34
160.00;3439.97
162.00;3441.28
164.00;3435.58
166.00;3433.85
168.00;3428.40
170.00;3433.62
172.00;3437.53
174.00;3427.12
176.00;3421.89
178.00;3417.94
180.00;3410.38
182.00;3398.49
184.00;3389.66
186.00;3388.29
188.00;3378.66
190.00;3372.44
192.00;3362.26
194.00;3351.85
196.00;3344.12
198.00;3347.33
200.00;3342.49
202.00;3337.52
204.00;3344.21
206.00;3355.39
208.00;3354.25
210.00;3346.44
212.00;3357.62
214.00;3357.76
216.00;3358.39
218.00;3353.26
220.00;3355.23
222.00;3350.04
224.00;3337.36
226.00;3343.52
228.00;3346.60
230.00;3346.60
232.00;3344.04
234.00;3339.85
236.00;3344.50
238.00;3355.23
240.00;3364.27
242.00;3357.98
244.00;3357.90
246.00;3355.40
248.00;3367.11
250.00;3371.34
252.00;3370.13
254.00;3375.14
256.00;3380.17
258.00;3383.78
260.00;3394.01
262.00;3402.03
264.00;3410.35
266.00;3411.24
268.00;3412.53
270.00;3427.16
272.00;3427.69
274.00;3418.78
276.00;3423.02
278.00;3422.33
280.00;3427.56
282.00;3435.80
284.00;3427.01
286.00;3426.53
288.00;3435.00
290.00;3432.38
292.00;3423.70
294.00;3430.62
296.00;3429.71
298.00;3428.90
300.00;3427.16
302.00;3429.17
304.00;3425.51
306.00;3418.38
308.00;3427.03
310.00;3414.63
312.00;3421.05
314.00;3420.37
316.00;3434.12
318.00;3429.98
320.00;3423.40
322.00;3430.99
324.00;3428.35
326.00;3428.37
328.00;3433.94
330.00;3434.25
332.00;3436.87
334.00;3438.42
336.00;3440.34
338.00;3439.81
340.00;3443.39
342.00;3435.17
344.00;3436.05
346.00;3442.60
348.00;3441.14
350.00;3435.52
352.00;3435.39
354.00;3434.46
356.00;3427.48
358.00;3430.04
360.00;3426.53
362.00;3425.21
364.00;3430.83
366.00;3425.40
368.00;3419.35
370.00;3419.97
372.00;3421.72
374.00;3430.81
376.00;3437.29
378.00;3439.87
380.00;3439.81
382.00;3445.12
384.00;3442.87
386.00;3447.49
388.00;3448.65
390.00;3453.16
392.00;3458.60
394.00;3456.01
396.00;3462.93
398.00;3460.63
400.00;3452.60
402.00;3461.74
404.00;3470.67
406.00;3472.73
408.00;3485.25
410.00;3487.99
412.00;3496.45
414.00;3510.75
416.00;3519.13
418.00;3520.46
420.00;3527.30
422.00;3534.65
424.00;3547.27
426.00;3554.07
428.00;3563.79
430.00;3563.40
432.00;3567.41
434.00;3561.42
436.00;3568.43
438.00;3563.00
440.00;3562.57
442.00;3559.46
444.00;3552.72
446.00;3562.11
448.00;3549.44
450.00;3542.29
452.00;3535.76
454.00;3539.25
456.00;3533.10
458.00;3525.78
460.00;3523.45
462.00;3519.28
464.00;3514.20
466.00;3507.89
468.00;3504.94
470.00;3505.47
472.00;3496.05
474.00;3482.53
476.00;3475.23
478.00;3467.11
480.00;3458.98
482.00;3446.98
484.00;3460.56
486.00;3455.19
488.00;3456.15
490.00;3466.48
492.00;3471.21
494.00;3470.52
496.00;3468.63
498.00;3473.71
500.00;3463.59
502.00;3453.65
504.00;3456.93
506.00;3456.75
508.00;3454.11
510.00;3471.02
512.00;3469.40
514.00;3478.20
516.00;3477.75
518.00;3483.43
520.00;3487.70
522.00;3490.03
524.00;3498.21
526.00;3486.96
528.00;3485.51
530.00;3480.86
532.00;3485.95
534.00;3487.97
536.00;3483.30
538.00;3484.40
540.00;3489.84
542.00;3486.21
544.00;3492.02
546.00;3493.49
548.00;3500.38
550.00;3508.59
552.00;3508.33
554.00;3511.87
556.00;3511.83
558.00;3517.79
560.00;3522.30
562.00;3522.98
564.00;3531.69
566.00;3538.99
568.00;3535.54
570.00;3531.94
572.00;3547.40
574.00;3552.53
576.00;3562.84
578.00;3565.20
580.00;3564.65
582.00;3577.76
584.00;3572.74
586.00;3566.34
588.00;3566.37
590.00;3561.48
592.00;3565.60
594.00;3558.51
596.00;3549.17
598.00;3547.52
600.00;3543.86
602.00;3532.56
604.00;3517.98
606.00;3515.22
608.00;3517.02
610.00;3524.02
612.00;3511.96
614.00;3507.06
616.00;3506.07
618.00;3496.83
620.00;3484.30
622.00;3489.15
624.00;3477.51
626.00;3470.02
628.00;3459.80
630.00;3455.76
632.00;3452.01
634.00;3450.75
636.00;3443.57
638.00;3440.71
640.00;3432.16
642.00;3437.42
644.00;3437.76
646.00;3434.88
648.00;3426.95
650.00;3418.58
652.00;3417.54
654.00;3433.28
656.00;3431.76
658.00;3423.60
660.00;3420.81
662.00;3420.46
664.00;3416.43
666.00;3419.85
668.00;3412.05
670.00;3419.66
672.00;3418.78
674.00;3415.93
676.00;3409.95
678.00;3403.98
680.00;3399.41
682.00;3404.46
684.00;3406.29
686.00;3410.36
688.00;3404.62
690.00;3392.72
692.00;3397.70
694.00;3411.31
696.00;3410.48
698.00;3398.01
700.00;3394.05
702.00;3399.90
704.00;3388.28
706.00;3389.36
708.00;3388.57
710.00;3390.23
712.00;3374.92
714.00;3375.52
716.00;3383.06
718.00;3383.77
720.00;3372.60
722.00;3380.16
724.00;3381.71
726.00;3375.51
728.00;3375.15
730.00;3374.94
732.00;3379.16
734.00;3376.43
736.00;3365.70
738.00;3368.82
740.00;3372.21
742.00;3358.22
744.00;3360.82
746.00;3353.06
748.00;3346.85
750.00;3339.55
752.00;3343.24
754.00;3346.51
756.00;3341.08
758.00;3328.83
760.00;3335.96
762.00;3341.75
764.00;3334.42
766.00;3325.16
768.00;3317.69
770.00;3326.40
772.00;3319.05
774.00;3317.23
776.00;3318.34
778.00;3319.80
780.00;3308.17
782.00;3287.10
784.00;3298.24
786.00;3310.00
788.00;3304.81
790.00;3302.37
792.00;3305.53
794.00;3301.22
796.00;3296.00
798.00;3284.68
800.00;3291.10
802.00;3291.53
804.00;3299.76
806.00;3299.18
808.00;3306.27
810.00;3304.56
812.00;3312.98
814.00;3322.62
816.00;3318.73
818.00;3314.05
820.00;3306.73
822.00;3300.36
824.00;3291.13
826.00;3278.82
828.00;3276.85
830.00;3289.72
832.00;3298.70
834.00;3292.38
836.00;3273.89
838.00;3267.77
840.00;3271.74
842.00;3273.30
844.00;3291.69
846.00;3311.54
848.00;3323.56
850.00;3321.75
852.00;3308.78
854.00;3307.28
856.00;3317.98
858.00;3297.66
860.00;3284.59
862.00;3283.25
864.00;3287.50
866.00;3281.35
868.00;3290.24
870.00;3292.69
872.00;3290.89
874.00;3295.40
876.00;3290.64
878.00;3288.55
880.00;3278.52
882.00;3268.97
884.00;3272.87
886.00;3275.87
888.00;3269.33
890.00;3263.11
892.00;3270.63
894.00;3266.96
896.00;3260.99
898.00;3259.84
900.00;3252.49
902.00;3258.90
904.00;3242.61
906.00;3236.04
908.00;3236.75
910.00;3235.80
912.00;3248.89
914.00;3256.59
916.00;3262.80
918.00;3282.35
920.00;3282.50
922.00;3286.12
924.00;3285.88
926.00;3272.40
928.00;3270.11
930.00;3280.71
932.00;3289.72
934.00;3304.24
936.00;3332.61
938.00;3343.23
940.00;3374.94
942.00;3409.32
944.00;3443.77
946.00;3487.39
948.00;3560.77
950.00;3645.11
952.00;3740.87
954.00;3860.88
956.00;3956.53
958.00;4036.29
960.00;4053.56
962.00;4016.35
964.00;3931.23
966.00;3810.71
968.00;3684.04
970.00;3563.32
972.00;3456.84
974.00;3382.56
976.00;3306.45
978.00;3266.52
980.00;3233.15
982.00;3212.70
984.00;3191.01
986.00;3186.00
988.00;3178.33
990.00;3174.48
992.00;3168.23
994.00;3165.55
996.00;3168.12
998.00;3169.65
1000.00;3167.37
1002.00;3179.24
1004.00;3188.27
1006.00;3180.23
1008.00;3171.05
1010.00;3164.12
1012.00;3158.28
1014.00;3151.20
1016.00;3154.88
1018.00;3163.44
1020.00;3174.56
1022.00;3175.73
1024.00;3173.74
1026.00;3178.18
1028.00;3180.87
1030.00;3168.90
1032.00;3165.21
1034.00;3168.45
1036.00;3171.63
1038.00;3167.35
1040.00;3166.41
1042.00;3167.65
1044.00;3172.74
1046.00;3171.51
1048.00;3164.78
1050.00;3166.80
1052.00;3160.10
1054.00;3153.82
1056.00;3167.62
1058.00;3162.48
1060.00;3164.82
1062.00;3180.74
1064.00;3192.30
1066.00;3203.32
1068.00;3214.06
1070.00;3220.24
1072.00;3210.95
1074.00;3200.15
1076.00;3200.85
1078.00;3179.26
1080.00;3162.10
1082.00;3140.09
1084.00;3114.60
1086.00;3097.70
1088.00;3097.03
1090.00;3091.71
1092.00;3069.07
1094.00;3056.78
1096.00;3046.76
1098.00;3047.47
1100.00;3040.05
1102.00;3030.69
1104.00;3035.80
1106.00;3029.35
1108.00;3026.01
1110.00;3024.27
1112.00;3012.19
1114.00;3004.18
1116.00;2989.01
1118.00;2982.09
1120.00;2968.53
1122.00;2961.71
1124.00;2963.27
1126.00;2961.10
1128.00;2964.01
1130.00;2963.74
1132.00;2959.61
1134.00;2948.79
1136.00;2933.66
1138.00;2940.50
1140.00;2944.27
1142.00;2945.26
1144.00;2931.05
1146.00;2935.28
1148.00;2938.01
1150.00;2934.08
1152.00;2922.63
1154.00;2916.15
1156.00;2931.92
1158.00;2926.40
1160.00;2928.40
1162.00;2921.17
1164.00;2909.33
1166.00;2911.27
1168.00;2909.64
1170.00;2909.45
1172.00;2908.17
1174.00;2913.84
1176.00;2912.01
1178.00;2905.32
1180.00;2903.46
1182.00;2901.43
1184.00;2899.34
1186.00;2903.20
1188.00;2890.32
1190.00;2888.10
1192.00;2885.84
1194.00;2886.48
1196.00;2887.07
1198.00;2893.73
1200.00;2889.57
1202.00;2884.48
1204.00;2884.44
1206.00;2888.07
1208.00;2886.34
1210.00;2882.24
1212.00;2875.74
1214.00;2875.15
1216.00;2878.36
1218.00;2868.32
1220.00;2871.36
1222.00;2869.02
1224.00;2875.84
1226.00;2876.23
1228.00;2879.66
1230.00;2899.06
1232.00;2891.58
1234.00;2907.19
1236.00;2901.86
1238.00;2912.30
1240.00;2919.74
1242.00;2924.85
1244.00;2912.73
1246.00;2903.15
1248.00;2907.32
1250.00;2899.85
1252.00;2890.98
1254.00;2886.29
1256.00;2879.62
1258.00;2878.01
1260.00;2878.80
1262.00;2878.10
1264.00;2867.01
1266.00;2883.93
1268.00;2877.73
1270.00;2882.39
1272.00;2874.18
1274.00;2867.36
1276.00;2862.77
1278.00;2860.36
1280.00;2854.78
1282.00;2841.07
1284.00;2839.81
1286.00;2832.37
1288.00;2820.41
1290.00;2808.25
1292.00;2807.30
1294.00;2795.76
1296.00;2793.93
1298.00;2783.74
1300.00;2783.37
1302.00;2787.81
1304.00;2779.47
1306.00;2785.91
1308.00;2784.83
1310.00;2779.86
1312.00;2780.36
1314.00;2781.57
1316.00;2779.66
1318.00;2783.62
1320.00;2780.80
1322.00;2766.07
1324.00;2763.62
1326.00;2767.56
1328.00;2764.99
1330.00;2759.92
1332.00;2763.08
1334.00;2750.01
1336.00;2750.89
1338.00;2766.20
1340.00;2756.85
1342.00;2753.41
1344.00;2753.65
1346.00;2745.56
1348.00;2737.81
1350.00;2739.81
1352.00;2721.79
1354.00;2725.55
1356.00;2720.06
1358.00;2713.06
1360.00;2716.54
1362.00;2715.50
1364.00;2699.71
1366.00;2700.94
1368.00;2707.43
1370.00;2705.53
1372.00;2712.52
1374.00;2706.87
1376.00;2709.23
1378.00;2706.32
1380.00;2697.14
1382.00;2708.51
1384.00;2703.32
1386.00;2708.47
1388.00;2705.71
1390.00;2703.82
1392.00;2696.39
1394.00;2689.85
1396.00;2686.63
1398.00;2692.81
1400.00;2694.91
1402.00;2679.03
1404.00;2678.84
1406.00;2675.75
1408.00;2679.62
1410.00;2680.60
1412.00;2668.56
1414.00;2668.44
1416.00;2670.79
1418.00;2671.47
1420.00;2671.38
1422.00;2674.84
1424.00;2665.63
1426.00;2665.59
1428.00;2654.38
1430.00;2662.67
1432.00;2661.03
1434.00;2656.18
1436.00;2662.09
1438.00;2668.07
1440.00;2674.42
1442.00;2677.42
1444.00;2679.44
1446.00;2690.80
1448.00;2693.10
1450.00;2696.21
1452.00;2694.47
1454.00;2683.28
1456.00;2673.99
1458.00;2666.80
1460.00;2658.91
1462.00;2666.47
1464.00;2655.33
1466.00;2648.41
1468.00;2631.97
1470.00;2608.34
1472.00;2605.75
1474.00;2609.81
1476.00;2591.57
1478.00;2584.85
1480.00;2567.62
1482.00;2557.92
1484.00;2560.80
1486.00;2549.53
1488.00;2546.27
1490.00;2541.75
1492.00;2535.19
1494.00;2535.91
1496.00;2520.30
1498.00;2518.84
1500.00;2515.34
1502.00;2507.21
1504.00;2499.99
1506.00;2500.43
1508.00;2496.29
1510.00;2493.40
1512.00;2487.56
1514.00;2484.26
1516.00;2495.23
1518.00;2483.82
1520.00;2486.23
1522.00;2484.61
1524.00;2484.96
1526.00;2474.98
1528.00;2474.05
1530.00;2474.69
1532.00;2467.85
1534.00;2461.21
1536.00;2463.11
1538.00;2457.07
1540.00;2454.14
1542.00;2456.24
1544.00;2452.11
1546.00;2445.18
1548.00;2432.73
1550.00;2439.83
1552.00;2428.77
1554.00;2433.60
1556.00;2432.90
1558.00;2421.67
1560.00;2426.00
1562.00;2422.79
1564.00;2414.14
1566.00;2407.80
1568.00;2411.59
1570.00;2405.54
1572.00;2412.03
1574.00;2413.25
1576.00;2402.11
1578.00;2400.38
1580.00;2403.42
1582.00;2394.89
1584.00;2405.33
1586.00;2404.74
1588.00;2402.55
1590.00;2401.48
1592.00;2397.51
1594.00;2384.98
1596.00;2394.22
1598.00;2393.81
1600.00;2397.14
1602.00;2416.93
1604.00;2379.74
1606.00;2386.56
1608.00;2401.47
1610.00;2391.46
1612.00;2382.63
1614.00;2375.05
1616.00;2380.17
1618.00;2376.64
1620.00;2383.52
1622.00;2390.59
1624.00;2387.84
1626.00;2386.26
1628.00;2403.18
1630.00;2404.84
1632.00;2392.76
1634.00;2403.40
1636.00;2395.61
1638.00;2393.64
1640.00;2397.22
1642.00;2396.97
1644.00;2394.82
1646.00;2394.77
1648.00;2378.57
1650.00;2381.56
1652.00;2369.14
1654.00;2380.86
1656.00;2378.49
1658.00;2372.04
1660.00;2372.08
1662.00;2366.41
1664.00;2369.38
1666.00;2373.85
1668.00;2371.93
1670.00;2360.65
1672.00;2366.30
1674.00;2362.16
1676.00;2354.96
1678.00;2341.82
1680.00;2342.14
1682.00;2335.22
1684.00;2323.43
1686.00;2318.66
1688.00;2319.38
1690.00;2295.55
1692.00;2288.71
1694.00;2276.84
1696.00;2278.94
1698.00;2266.59
1700.00;2252.82
1702.00;2244.13
1704.00;2230.74
1706.00;2229.31
1708.00;2215.87
1710.00;2224.62
1712.00;2221.16
1714.00;2206.26
1716.00;2203.10
1718.00;2200.75
1720.00;2204.04
1722.00;2192.48
1724.00;2182.71
1726.00;2178.96
1728.00;2180.72
1730.00;2180.55
1732.00;2169.87
1734.00;2172.88
1736.00;2170.47
1738.00;2150.59
1740.00;2155.34
1742.00;2157.80
1744.00;2157.34
1746.00;2150.09
1748.00;2152.25
1750.00;2145.96
1752.00;2161.51
1754.00;2151.23
1756.00;2135.59
1758.00;2138.78
1760.00;2131.27
1762.00;2129.29
1764.00;2114.35
1766.00;2106.76
1768.00;2111.45
1770.00;2111.11
1772.00;2104.53
1774.00;2117.15
1776.00;2108.92
1778.00;2103.59
1780.00;2100.11
1782.00;2097.55
1784.00;2096.95
1786.00;2096.70
1788.00;2087.67
1790.00;2091.62
1792.00;2084.04
1794.00;2092.47
1796.00;2081.81
1798.00;2064.39
1800.00;2079.13
1802.00;2080.31
1804.00;2061.56
1806.00;2075.57
1808.00;2058.91
1810.00;2070.87
1812.00;2058.32
1814.00;2052.33
1816.00;2048.01
1818.00;2055.99
1820.00;2057.41
1822.00;2036.39
1824.00;2045.55
1826.00;2050.75
1828.00;2046.28
1830.00;2035.75
1832.00;2030.17
1834.00;2027.53
1836.00;2022.30
1838.00;2017.44
1840.00;2013.89
1842.00;2007.14
1844.00;2014.76
1846.00;2012.12
1848.00;2003.95
1850.00;1998.10
1852.00;2007.62
1854.00;1997.60
1856.00;1987.29
1858.00;1993.96
1860.00;1987.92
1862.00;1998.74
1864.00;1981.12
1866.00;1981.95
1868.00;1968.07
1870.00;1954.48
1872.00;1967.94
1874.00;1956.46
1876.00;1954.81
1878.00;1959.02
1880.00;1961.70
1882.00;1947.19
1884.00;1952.48
1886.00;1945.29
1888.00;1953.66
1890.00;1945.39
1892.00;1939.48
1894.00;1944.56
1896.00;1931.17
1898.00;1936.81
1900.00;1934.68
1902.00;1937.65
1904.00;1934.66
1906.00;1922.12
1908.00;1929.63
1910.00;1921.67
1912.00;1907.94
1914.00;1922.38
1916.00;1912.27
1918.00;1904.47
1920.00;1898.45
1922.00;1898.70
1924.00;1904.43
1926.00;1904.62
1928.00;1904.04
1930.00;1901.61
1932.00;1888.95
1934.00;1886.25
1936.00;1887.24
1938.00;1872.29
1940.00;1871.65
1942.00;1882.92
1944.00;1869.88
1946.00;1866.08
1948.00;1864.18
1950.00;1871.24
1952.00;1879.23
1954.00;1873.30
1956.00;1857.39
1958.00;1855.01
1960.00;1828.30
1962.00;1851.19
1964.00;1854.40
1966.00;1844.14
1968.00;1843.85
1970.00;1835.63
1972.00;1833.82
1974.00;1834.71
1976.00;1821.39
1978.00;1824.54
1980.00;1807.35
1982.00;1805.24
1984.00;1805.29
1986.00;1808.27
1988.00;1805.55
1990.00;1805.82
1992.00;1798.48
1994.00;1812.61
1996.00;1802.82
1998.00;1802.28
2000.00;1782.32
2002.00;1788.03
2004.00;1790.74
2006.00;1797.68
2008.00;1790.55
2010.00;1785.28
2012.00;1792.99
2014.00;1790.04
2016.00;1784.19
2018.00;1768.99
2020.00;1790.67
2022.00;1777.28
2024.00;1777.31
2026.00;1764.88
2028.00;1774.10
2030.00;1747.86
2032.00;1763.61
2034.00;1755.24
2036.00;1761.78
2038.00;1764.42
2040.00;1748.36
2042.00;1736.59
2044.00;1750.48
2046.00;1725.19
2048.00;1731.62
2050.00;1729.86
2052.00;1724.52
2054.00;1724.75
2056.00;1739.44
2058.00;1722.59
2060.00;1730.95
2062.00;1702.08
2064.00;1719.89
2066.00;1733.35
2068.00;1713.90
2070.00;1715.56
2072.00;1697.35
2074.00;1705.49
2076.00;1698.63
2078.00;1679.64
2080.00;1702.19
2082.00;1704.03
2084.00;1694.07
2086.00;1693.31
2088.00;1671.62
2090.00;1695.87
2092.00;1688.70
2094.00;1692.61
2096.00;1689.79
2098.00;1688.11
2100.00;1678.26
2102.00;1685.86
2104.00;1650.33
2106.00;1674.83
2108.00;1666.95
2110.00;1674.96
2112.00;1633.54
2114.00;1648.31
2116.00;1658.99
2118.00;1661.67
2120.00;1673.93
2122.00;1643.46
2124.00;1632.88
2126.00;1642.22
2128.00;1648.23
2130.00;1631.48
2132.00;1629.91
2134.00;1627.89
2136.00;1644.43
2138.00;1607.10
2140.00;1611.24
2142.00;1612.87
2144.00;1615.93
2146.00;1600.41
2148.00;1611.57
2150.00;1604.22
2152.00;1607.25
2154.00;1610.83
2156.00;1580.45
2158.00;1605.19
2160.00;1578.60
2162.00;1595.69
2164.00;1581.25
2166.00;1589.98
2168.00;1606.33
2170.00;1596.69
2172.00;1594.45
2174.00;1583.21
2176.00;1594.22
2178.00;1568.33
2180.00;1576.70
2182.00;1587.48
2184.00;1568.76
2186.00;1560.89
2188.00;1586.10
2190.00;1570.76
2192.00;1565.03
2194.00;1570.38
2196.00;1545.67
2198.00;1568.58
2200.00;1573.12
2202.00;1550.44
2204.00;1564.24
2206.00;1549.42
2208.00;1564.94
2210.00;1551.99
2212.00;1566.90
2214.00;1562.14
2216.00;1564.24
2218.00;1536.81
2220.00;1557.58
2222.00;1567.52
2224.00;1529.45
2226.00;1536.04
2228.00;1523.40
2230.00;1523.10
2232.00;1524.25
2234.00;1512.63
2236.00;1498.70
2238.00;1513.65
2240.00;1508.94
2242.00;1504.62
2244.00;1510.72
2246.00;1489.18
2248.00;1511.42
2250.00;1494.12
2252.00;1485.50
2254.00;1482.38
2256.00;1481.49
2258.00;1491.00
2260.00;1482.77
2262.00;1488.35
2264.00;1478.78
2266.00;1469.46
2268.00;1452.81
2270.00;1493.93
2272.00;1463.71
2274.00;1472.13
2276.00;1465.04
2278.00;1476.14
2280.00;1460.37
2282.00;1474.98
2284.00;1465.40
2286.00;1455.05
2288.00;1455.25
2290.00;1442.83
2292.00;1480.20
2294.00;1456.14
2296.00;1460.34
2298.00;1463.56
2300.00;1461.82
[ANALYSIS RESULT]
Analysis_Type;None
